Central Density (g/cm^3),Radius (km),Mass (M_sun)
240000000000000.0,20.0,0.12008235031160217
246820852717173.72,20.0,0.12411430681591976
253641705434347.4,20.0,0.12838346837121145
260462558151521.12,20.0,0.13286481249007656
267283410868694.8,20.0,0.1375619254857322
274104263585868.53,20.0,0.14247331125456184
280925116303042.25,20.0,0.14759218117259115
287745969020215.94,19.943669288707525,0.15294808674701327
294566821737389.6,19.111557362690338,0.15851461762308142
301387674454563.4,18.379983063744763,0.16428566448282236
308208527171737.06,17.734497928484473,0.17027312609908388
315029379888910.75,17.16060527934181,0.1764762593318274
321850232606084.5,16.648022494091993,0.18287776677538292
328671085323258.2,16.190384186995892,0.18949327151078635
335491938040431.9,15.779808671975157,0.19630154982227563
342312790757605.6,15.410084854800687,0.20331174666104013
349133643474779.3,15.076087961360088,0.2105152589632139
355954496191953.0,14.773980994343763,0.21792463655256217
362775348909126.75,14.499558258695851,0.22551398622153776
369596201626300.44,14.251081213364643,0.23329566263851856
376417054343474.1,14.024233249983304,0.24125508864610457
383237907060647.9,13.817363717391961,0.24940806638836266
390058759777821.56,13.628075887372242,0.2577337382975338
396879612494995.25,13.454697211377828,0.26622835188244487
403700465212169.0,13.2959295421841,0.27489428140134553
410521317929342.7,13.150069275664697,0.2837309105282541
417342170646516.4,13.01618260005902,0.29272614979487677
424163023363690.1,12.892826991999073,0.3018836358165944
430983876080863.8,12.779529545163324,0.311171818493737
437804728798037.5,12.675774635460112,0.3205353733627497
444625581515211.25,12.58024012211699,0.3300255988993514
451446434232384.9,12.491213733752382,0.3397174458779587
458267286949558.6,12.408744989130444,0.349576521713676
465088139666732.4,12.33226381787366,0.3595599185738261
471908992383906.0,12.260814586867742,0.3697791542180387
478729845101079.75,12.194718721145158,0.38012286141935686
485550697818253.44,12.133356844045217,0.39063485807584447
492371550535427.1,12.075811499939347,0.4013188452877453
499192403252600.9,12.022775762992113,0.412132535892931
506013255969774.56,11.973006501933018,0.4232023534907615
512834108686948.25,11.926750795308337,0.4344327981368261
519654961404122.0,11.883642215277387,0.4457916577621736
526475814121295.7,11.843572400622127,0.45733152030832125
533296666838469.4,11.806393595446437,0.46900256155726744
540117519555643.1,11.771713324867047,0.48086212102510867
546938372272816.8,11.739400871143735,0.4929182232629425
553759224989990.5,11.70949966153563,0.5050935595399539
560580077707164.25,11.681620009849373,0.5174003731529563
567400930424338.0,11.656153728329059,0.5298228730822382
574221783141511.6,11.63226614523889,0.5423700334726143
581042635858685.4,11.61013838712273,0.5550387928377053
587863488575859.0,11.589699832245868,0.5678311748852047
594684341293032.8,11.570677035141221,0.5807783551618837
601505194010206.5,11.553129524499736,0.5938986518258308
608326046727380.2,11.536951184812859,0.6071188081822736
615146899444553.9,11.522010573853972,0.6204065001651218
621967752161727.6,11.508247471456537,0.6337932730091882
628788604878901.2,11.49568281655352,0.6472772580870654
635609457596075.0,11.483972610058345,0.6609129569712512
642430310313248.8,11.473187876225413,0.6746208443046623
649251163030422.5,11.46324541219137,0.6884108407571154
656072015747596.1,11.454269022062798,0.7023062861651007
662892868464769.8,11.445977691941819,0.7162516621640401
669713721181943.5,11.438543436299112,0.7302479101974843
676534573899117.2,11.431599160663074,0.7442850693504606
683355426616291.0,11.42544593001073,0.7583918133092385
690176279333464.8,11.419670560889191,0.7725153436941934
696997132050638.4,11.41446140055665,0.78668215231242
703817984767812.0,11.409830215522458,0.800903635764232
710638837484985.8,11.405469449852898,0.8151553123724569
717459690202159.5,11.401511970689644,0.8294156685361274
724280542919333.2,11.398248339298876,0.8437539917562699
731101395636506.9,11.394930189203826,0.8580789744900211
737922248353680.6,11.39210340539027,0.8724330958482749
744743101070854.2,11.38948151424577,0.886755395897752
751563953788028.0,11.38719365968185,0.9010595277974417
758384806505201.8,11.385014764114304,0.9153565663712837
765205659222375.5,11.383321162910361,0.9296261339010569
772026511939549.1,11.38160001288902,0.9438607476212054
778847364656722.9,11.379878357582976,0.9580459251023423
785668217373896.5,11.378335517748287,0.9722485966226116
792489070091070.2,11.377279360324897,0.9864634793232459
799309922808244.0,11.375966302637323,1.0006146543221384
806130775525417.6,11.374799515735424,1.0146643641046547
812951628242591.4,11.373499784114912,1.02867783649383
819772480959765.1,11.372680046169132,1.042694418021953
826593333676938.8,11.371742953617918,1.0566345039864964
833414186394112.5,11.370796017297364,1.0705456195125864
840235039111286.2,11.369891191469547,1.084376336678222
847055891828459.9,11.368887811482598,1.0980907149610204
853876744545633.6,11.36791695668467,1.1117593809760267
860697597262807.4,11.367267671533513,1.1253924297248061
867518449979981.0,11.365963839103488,1.1388704622671373
874339302697154.8,11.365192352650128,1.1523574218044534
881160155414328.5,11.364172821584377,1.1657168451855493
887981008131502.1,11.363111691355554,1.1789728204197796
894801860848675.9,11.362004679460712,1.1921514156513087
901622713565849.6,11.36085427472553,1.2052216660934232
908443566283023.2,11.35960724816046,1.218227522262061
915264419000197.0,11.358161744150062,1.2311241761408602
922085271717370.8,11.356903874361981,1.2439443917122321
928906124434544.4,11.355454531999637,1.256644039881793
935726977151718.1,11.353950502637264,1.2692888785912244
942547829868891.9,11.352330243960164,1.2817859286570505
949368682586065.5,11.350698048413207,1.294169072827367
956189535303239.2,11.348933907731704,1.3064600463938516
963010388020413.0,11.347153880762532,1.3186422217720297
969831240737586.6,11.34501300222917,1.3306932127788265
976652093454760.4,11.343156033576978,1.3426881148117054
983472946171934.1,11.341149739704134,1.3545419077746153
990293798889107.8,11.338820872054617,1.3662170741644655
997114651606281.5,11.336600452754293,1.3778246355198787
1003935504323455.2,11.334076174887,1.3893286716865
1010756357040628.9,11.331706577097298,1.400755590085417
1017577209757802.6,11.329299535192234,1.412093785359034
1024398062474976.2,11.326292506063949,1.4232733691235568
1031218915192150.0,11.323684367233582,1.4342727578079286
1038039767909323.8,11.320773940269794,1.44515718687895
1044860620626497.4,11.317776811309214,1.4559641635587375
1051681473343671.1,11.314553912434478,1.4666588560875453
1058502326060844.9,11.311689168346808,1.4773098572424788
1065323178778018.5,11.308387476390733,1.4878240650932035
1072144031495192.2,11.30507046155749,1.4981543836267976
1078964884212366.0,11.301646307849808,1.5083549696648793
1085785736929539.6,11.297974329644873,1.5184780581207038
1092606589646713.4,11.294373371763879,1.528512747759869
1099427442363887.1,11.290908837233221,1.5384621747164537
1106248295081060.8,11.286750468426689,1.5482703792178594
1113069147798234.5,11.283239211282586,1.5579633329225424
1119890000515408.2,11.279196574876174,1.5674671559927607
1126710853232582.0,11.275245446089192,1.5768767954453633
1133531705949755.5,11.27117177360315,1.5861668887201354
1140352558666929.5,11.266864738711675,1.595380546258148
1147173411384103.0,11.26253800804114,1.6044904724659887
1153994264101276.8,11.258464185756743,1.6135285105854231
1160815116818450.5,11.25385421141732,1.6223675510827031
1167635969535624.0,11.249478638836427,1.6311069553416262
1174456822252798.0,11.244768342983335,1.6397372794262963
1181277674969971.5,11.239995765397692,1.6482680912733532
1188098527687145.2,11.235195901610101,1.6567120895388228
1194919380404319.0,11.230386655911119,1.6650762044016125
1201740233121492.8,11.225652347964237,1.6733551272127574
1208561085838666.5,11.220828914956638,1.6814207306261455
1215381938555840.0,11.2158264018069,1.6893854290250965
1222202791273013.8,11.210982729534651,1.697277026398805
1229023643990187.5,11.205611976612804,1.7050580262402335
1235844496707361.2,11.200649903499873,1.712789199704624
1242665349424535.0,11.195272426959155,1.720410966046659
1249486202141708.5,11.190072167538483,1.727898686689591
1256307054858882.5,11.184975353902404,1.7352293624575077
1263127907576056.0,11.179623386687545,1.7424683825761627
1269948760293229.8,11.17407709954396,1.749594647674221
1276769613010403.5,11.168563754276098,1.7566527218048538
1283590465727577.0,11.16292163063043,1.763615146701731
1290411318444751.0,11.157567599256948,1.770542887857188
1297232171161924.5,11.151912062766508,1.77734068555791
1304053023879098.2,11.146025597194702,1.7839823847959926
1310873876596272.0,11.140611196104256,1.7906269159374235
1317694729313445.8,11.134827233554292,1.7971316215403934
1324515582030619.5,11.128976204871528,1.8035825794223272
1331336434747793.0,11.123015539796976,1.8099281362738773
1338157287464967.0,11.117176436293446,1.8162384960817743
1344978140182140.5,11.111186351031645,1.8224105584809205
1351798992899314.2,11.105456809806498,1.8284483020612534
1358619845616488.0,11.09948251020513,1.834383259235453
1365440698333661.5,11.09340683256829,1.8402790100169741
1372261551050835.2,11.087446536700162,1.846074816461063
1379082403768009.0,11.081412804806687,1.8518173076009132
1385903256485182.8,11.075300643912122,1.8574701822721424
1392724109202356.5,11.069075573414732,1.8630598717776865
1399544961919530.2,11.06300366622682,1.8685089752490514
1406365814636704.0,11.056862570066878,1.8738936913711999
1413186667353877.5,11.050697614753165,1.8792145661159123
1420007520071051.2,11.044563966622185,1.8844574776977459
1426828372788225.0,11.038330676094633,1.8896581530994718
1433649225505398.8,11.031907003194718,1.8947388003535315
1440470078222572.5,11.025470876369802,1.899762470215439
1447290930939746.2,11.019353398858472,1.9047144831247558
1454111783656919.8,11.013022915461194,1.9095472359009782
1460932636374093.5,11.006750185927805,1.914328557292275
1467753489091267.2,11.000453347150547,1.9190508313082888
1474574341808441.0,10.994047316602416,1.9236999637735368
1481395194525614.8,10.987959612912091,1.9282799089669753
1488216047242788.5,10.98115828300695,1.9328196128167692
1495036899959962.0,10.974849362765452,1.937316459354771
1501857752677135.8,10.968388889947475,1.9416725769608179
1508678605394309.5,10.961961918113266,1.9459734081446673
1515499458111483.2,10.955607584143825,1.950213555747497
1522320310828657.0,10.94912016447565,1.9543806294714638
1529141163545830.8,10.942525096905182,1.9585122031002917
1535962016263004.2,10.936102961862032,1.9625966433793638
1542782868980178.0,10.929633539836768,1.9666458456636204
1549603721697351.8,10.923148672372326,1.9705976487243815
1556424574414525.5,10.916567223942193,1.9744362296318134
1563245427131699.2,10.910175404613389,1.978282840492687
1570066279848872.8,10.903718134336604,1.9820496118620101
1576887132566046.5,10.89717529279611,1.985763355266001
1583707985283220.2,10.890587714481917,1.989411639482056
1590528838000394.0,10.884042071246736,1.9930742167866518
1597349690717567.8,10.877397463797575,1.9966067793789442
1604170543434741.5,10.870943087010765,2.0001111212133407
1610991396151915.0,10.864309334593273,2.0035244948237865
1617812248869088.8,10.857970025523038,2.006889299331872
1624633101586262.5,10.851386524479047,2.010207772559619
1631453954303436.2,10.844866758262045,2.013465665560208
1638274807020610.0,10.83830229663958,2.0167127465940085
1645095659737783.8,10.831845916159201,2.0199211368288696
1651916512454957.2,10.825285787564876,2.023068782054611
1658737365172131.0,10.818718742790185,2.0261342899718944
1665558217889304.8,10.812376976071944,2.029142320563633
1672379070606478.5,10.805909752513678,2.032131751601314
1679199923323652.2,10.799314416996962,2.03504157616466
1686020776040826.0,10.792920337784244,2.037946290845769
1692841628757999.5,10.786325212537733,2.040787203840145
1699662481475173.2,10.779915715869182,2.0436101967723226
1706483334192347.0,10.773308583461512,2.0463659956963522
1713304186909520.8,10.766739586863604,2.049077070400336
1720125039626694.5,10.760420198961922,2.0517689182852257
1726945892343868.2,10.754155337145791,2.0543662939116683
1733766745061041.8,10.747703163143967,2.0569428011100754
1740587597778215.5,10.741128687801165,2.0594573997954995
1747408450495389.2,10.734657522845307,2.061955738959946
1754229303212563.0,10.728138043343975,2.064410470550015
1761050155929736.8,10.721768056886306,2.066843861565221
1767871008646910.5,10.715288559522314,2.069231369697916
1774691861364084.0,10.709115712833418,2.0716136218709535
1781512714081257.8,10.70273147704052,2.0739243597754617
1788333566798431.5,10.696300128935837,2.076144018432103
1795154419515605.2,10.690045508114318,2.078397314463188
1801975272232779.0,10.68367489318329,2.080575858087905
1808796124949952.5,10.6771508161381,2.082730278690066
1815616977667126.2,10.670808725258066,2.0848714287284036
1822437830384300.0,10.6645922665487,2.0869828172983382
1829258683101473.8,10.658252674017685,2.089045051796645
1836079535818647.5,10.651928754961073,2.0910681628070757
1842900388535821.2,10.645677039444195,2.093054428855849
1849721241252994.8,10.639414021778954,2.0950102827079333
1856542093970168.5,10.633168074317277,2.096939068218422
1863362946687342.2,10.626908665580482,2.0988339687585014
1870183799404516.0,10.62055932395355,2.1007014293945367
1877004652121689.8,10.614314404568777,2.102544209612407
1883825504838863.5,10.608038515279368,2.104363703783628
1890646357556037.0,10.601813361537577,2.106162008483518
1897467210273210.8,10.595655095459788,2.107875021305521
1904288062990384.5,10.589639953695269,2.1095993968234423
1911108915707558.2,10.583428717351582,2.111269154445374
1917929768424732.0,10.577374708099116,2.1129438578309525
1924750621141905.8,10.571241494348858,2.1145634054421163
1931571473859079.2,10.564872841881684,2.1161671817772296
1938392326576253.0,10.559030789958738,2.1177636256343613
1945213179293426.8,10.552804261966688,2.119312063917243
1952034032010600.5,10.546719014717644,2.120851256513118
1958854884727774.2,10.540642584425388,2.122334261099123
1965675737444948.0,10.534829188488692,2.1238319159095984
1972496590162121.5,10.528705091604811,2.1252344379318746
1979317442879295.2,10.52261815310221,2.1266373855862133
1986138295596469.0,10.516778026691586,2.1280798849131313
1992959148313642.8,10.510725530739569,2.1294416412581625
1999780001030816.5,10.504704257713076,2.1307790044694928
2006600853747990.0,10.498840004534784,2.1321228053284
2013421706465163.8,10.492848248937046,2.1334284614905896
2020242559182337.5,10.486896673730099,2.1346967913176647
2027063411899511.2,10.480899006928675,2.135932512653292
2033884264616685.0,10.475113124733213,2.1371951130410545
2040705117333858.8,10.469133737744235,2.1383822698099215
2047525970051032.2,10.463349223805949,2.139586102370983
2054346822768206.0,10.457476278476618,2.1407421989746935
2061167675485379.8,10.451668834282048,2.141908654264383
2067988528202553.5,10.445919360306082,2.1430656739353737
2074809380919727.2,10.439917630128061,2.144147303725928
2081630233636901.0,10.434165933618926,2.1452485223050677
2088451086354074.5,10.428351035403313,2.146301664905689
2095271939071248.2,10.422819111641555,2.1474069372723035
2102092791788422.0,10.416915261082172,2.1484013578198633
2108913644505595.8,10.41115842301311,2.149367929678281
2115734497222769.5,10.405501389908823,2.150372397085981
2122555349939943.2,10.399821142647717,2.151387688060499
2129376202657116.8,10.394157017359404,2.1523208612541915
2136197055374290.5,10.38841917297422,2.153266689498254
2143017908091464.2,10.382746113435445,2.154187850386803
2149838760808638.0,10.377048503283513,2.155075031172309
2156659613525811.8,10.371482864663335,2.155963912651571
2163480466242985.5,10.365993256293855,2.156858264313118
2170301318960159.0,10.360435318308735,2.1576959680709566
2177122171677332.8,10.35491120151856,2.158539535197444
2183943024394506.5,10.349441128916325,2.1593733081006605
2190763877111680.2,10.34383177906033,2.1601608468620417
2197584729828854.0,10.338274774740986,2.160941068653007
2204405582546027.5,10.332829647627232,2.161741300360312
2211226435263201.2,10.327292774179408,2.162490857089798
2218047287980375.0,10.321762443165404,2.163216316206518
2224868140697548.8,10.316385007195812,2.163943772842323
2231688993414722.5,10.310970474531334,2.1646572209653216
2238509846131896.2,10.305671139539104,2.165348270845205
2245330698849069.8,10.300299676810743,2.1660363770493767
2252151551566243.5,10.29492426886134,2.1666971010101417
2258972404283417.0,10.289532973713651,2.16734351456102
2265793257000591.0,10.284176984845434,2.167989583632463
2272614109717765.0,10.278944435578559,2.1686302110351585
2279434962434938.5,10.273508197542485,2.169218372458248
2286255815152112.0,10.268355074325878,2.1698412100445585
2293076667869286.0,10.263041076107521,2.170432177781489
2299897520586459.5,10.257833108747638,2.1710036364857017
2306718373303633.0,10.252583526274309,2.1715625526958577
2313539226020807.0,10.24721522606362,2.172087776155089
2320360078737981.0,10.24217525648564,2.172663718676428
2327180931455154.0,10.236847982627351,2.173174971808948
2334001784172328.0,10.231677917197047,2.173690823447533
2340822636889502.0,10.226485830291562,2.174212574080466
2347643489606675.5,10.221280166588103,2.174678297186528
2354464342323849.0,10.216166801292855,2.175174730457284
2361285195041023.0,10.211072105334507,2.1756287231887064
2368106047758196.5,10.205868015790998,2.1760649596652253
2374926900475370.0,10.200766405860898,2.176509454333184
2381747753192544.0,10.195916144738058,2.1769832889809737
2388568605909718.0,10.190730104853106,2.1773734421258526
2395389458626891.5,10.185697527652993,2.177796750912707
2402210311344065.0,10.180603599446478,2.1781921873560024
2409031164061239.0,10.175773689835168,2.1786256087456253
2415852016778412.5,10.170664278534803,2.1789717171537624
2422672869495586.0,10.165774620628042,2.179374935799045
2429493722212760.0,10.160660547115135,2.1797240479703652
2436314574929934.0,10.15578847143774,2.1800820135194376
2443135427647107.0,10.150853008274018,2.1804147438975723
2449956280364281.0,10.145963378399456,2.1807499256878304
2456777133081455.0,10.141171265934668,2.1810893793135993
2463597985798628.5,10.136179924006832,2.1813823868030644
2470418838515802.0,10.131366993121734,2.1817028456564063
2477239691232976.0,10.12649252520177,2.182001137861733
2484060543950149.5,10.12173715220155,2.1823046262505565
2490881396667323.0,10.116793350356073,2.182560318987316
2497702249384497.0,10.111996025347933,2.182836378641917
2504523102101670.5,10.107062043214706,2.18309235035092
2511343954818844.5,10.102422151143887,2.1833615213256783
2518164807536018.0,10.097770104925338,2.18361368351953
2524985660253192.0,10.09298864899774,2.1838470819574947
2531806512970365.5,10.088353616369272,2.184085443305533
2538627365687539.5,10.083573375814009,2.184289936826436
2545448218404713.0,10.078995773889464,2.1845286367123093
2552269071121886.5,10.07431870741823,2.1847146523994745
2559089923839060.5,10.069688385626508,2.184947875692534
2565910776556234.0,10.06490793354583,2.185120648842596
2572731629273408.0,10.060217357730547,2.185290631711802
2579552481990581.5,10.055556247220451,2.185476691346131
2586373334707755.0,10.050966285673677,2.1856356190205397
2593194187424929.0,10.04638646876294,2.185812802315812
2600015040142102.5,10.041810029355876,2.1859713600485113
2606835892859276.5,10.037269963855072,2.1861446351140534
2613656745576450.0,10.032625029802704,2.1862577152945257
2620477598293624.0,10.028079647301032,2.186403619016304
2627298451010797.5,10.023480398360194,2.186531148578737
2634119303727971.0,10.018968379462585,2.1866520428864975
2640940156445145.0,10.014510278921808,2.1867969127095748
2647761009162318.5,10.009862472998103,2.186875966704279
2654581861879492.5,10.00537370597312,2.1869891719930417
2661402714596666.0,10.000937874150019,2.1870791779348244
