Central Density (g/cm^3),Radius (km),Mass (M_sun)
240000000000000.0,20.0,0.10694882588268274
247004172103657.84,20.0,0.1091386780331317
254008344207315.72,20.0,0.11136466300740394
261012516310973.56,20.0,0.11361708898122025
268016688414631.44,20.0,0.11589265610624076
275020860518289.28,20.0,0.11887386385825752
282025032621947.1,20.0,0.12321504750670863
289029204725605.0,20.0,0.1280334521619676
296033376829262.9,20.0,0.1333306564699252
303037548932920.7,20.0,0.1391107700230367
310041721036578.56,20.0,0.14536432986920966
317045893140236.4,18.92862253975509,0.15209314475905503
324050065243894.25,17.953801246816596,0.15928376245080922
331054237347552.1,17.120710381997487,0.16693245437998291
338058409451210.0,16.405552731189598,0.17502356270130598
345062581554867.8,15.80664039654656,0.18329529005702921
352066753658525.7,15.300687659107956,0.19171027421515002
359070925762183.56,14.85982812821934,0.20045735311126275
366075097865841.4,14.474165459285325,0.20953376996546488
373079269969499.25,14.135137580971076,0.21892530236889748
380083442073157.1,13.836411276895081,0.22863148821183074
387087614176815.0,13.572482955881542,0.238640951997452
394091786280472.8,13.33873065026695,0.2489488580513898
401095958384130.7,13.130986841611886,0.25954502868365287
408100130487788.5,12.946057157354282,0.27042936712200755
415104302591446.4,12.781301085848469,0.28159928452482913
422108474695104.25,12.634246041698871,0.2930336074220194
429112646798762.1,12.502686024014531,0.30476224010676456
436116818902419.94,12.384709130078805,0.31671568470716854
443120991006077.8,12.279271869906651,0.3289469756571581
450125163109735.6,12.18451406154917,0.34141092199924644
457129335213393.5,12.100048960436794,0.3541649351333338
464133507317051.4,12.023675019339326,0.3671077493733222
471137679420709.25,11.955414395598243,0.38030292852977104
478141851524367.1,11.894059599072065,0.3937117076346443
485146023628024.94,11.839724907832657,0.4073785246133911
492150195731682.8,11.79019910783798,0.4212169892340904
499154367835340.6,11.746341295236414,0.4352900717958048
506158539938998.5,11.707038807375486,0.4495577772966108
513162712042656.4,11.671991065544589,0.4640202908336702
520166884146314.25,11.642343629454533,0.47798701822376094
527171056249972.06,11.61831525209856,0.4905005222151223
534175228353629.94,11.596694359558466,0.5030338762375162
541179400457287.8,11.577281963451671,0.5155766682900738
548183572560945.6,11.559506736679273,0.5281382490709968
555187744664603.5,11.543518059676629,0.5407182815363057
562191916768261.4,11.529598734342358,0.5533250786622069
569196088871919.2,11.515966357426338,0.5659045802284846
576200260975577.0,11.5038148170899,0.5784931557675875
583204433079235.0,11.493235425807699,0.5911156122680922
590208605182892.8,11.483014608227009,0.6037020736657686
597212777286550.6,11.473950070143058,0.6163209963752087
604216949390208.5,11.465932735899756,0.6289408572321616
611221121493866.2,11.457881586368039,0.6415191702807441
618225293597524.2,11.450912516289156,0.6540985972405547
625229465701182.0,11.444688098281475,0.6667147054897882
632233637804839.9,11.438734509057037,0.6792872192374797
639237809908497.8,11.43337296397438,0.6918386947235221
646241982012155.6,11.428283759136365,0.7044191889972051
653246154115813.5,11.423443777584616,0.7169132224333102
660250326219471.2,11.419248685963716,0.7294799702636033
667254498323129.2,11.415423197796132,0.7419788343246678
674258670426787.0,11.411699079022728,0.7544745145284337
681262842530444.9,11.408260500338503,0.7669358493136617
688267014634102.8,11.404866043567834,0.7793636175493517
695271186737760.6,11.401857148327673,0.7917867435346984
702275358841418.5,11.398629641959234,0.8041359664033918
709279530945076.2,11.396445581638297,0.8154060597758818
716283703048734.2,11.393936987550724,0.8265519107194783
723287875152392.0,11.391550368704875,0.8376436181019955
730292047256049.9,11.389274981059533,0.8486343641775687
737296219359707.8,11.38680152713005,0.859549651968046
744300391463365.6,11.384570783026042,0.8704383543469946
751304563567023.5,11.382365582463724,0.8812316925482228
758308735670681.2,11.379746915760391,0.8919223954968555
765312907774339.2,11.377645448985009,0.9026009223316008
772317079877997.0,11.375047743613363,0.9131889487016057
779321251981654.9,11.372360524509567,0.9236633899763361
786325424085312.8,11.370013051108865,0.9340953808440013
793329596188970.5,11.367715031403959,0.9445155594769442
800333768292628.5,11.365154704625915,0.954824274434114
807337940396286.2,11.362434695507222,0.9650419878513667
814342112499944.1,11.35976906252441,0.9752201796433938
821346284603602.0,11.356966557550367,0.98531302885967
828350456707259.9,11.354001180689599,0.9953021067605567
835354628810917.8,11.351293645737107,1.0052918243967062
842358800914575.6,11.348125534724849,1.0151752269460248
849362973018233.4,11.345220316648438,1.0249918035115853
856367145121891.2,11.342002005589558,1.0347398618112846
863371317225549.1,11.338637207655752,1.0443866516513347
870375489329207.0,11.33534677122629,1.0540143211850896
877379661432864.9,11.332283266890931,1.0635707497951457
884383833536522.8,11.328787667110033,1.073046417609984
891388005640180.5,11.325031332918831,1.0824394504828758
898392177743838.4,11.321719886909488,1.0916948640485322
905396349847496.2,11.317965422546786,1.1006371032832751
912400521951154.1,11.314169596291503,1.1094984333191278
919404694054812.0,11.310302780660306,1.1182627047757807
926408866158469.9,11.306499468046935,1.1269817011626104
933413038262127.8,11.30274521231766,1.135667600535815
940417210365785.5,11.298816991246543,1.1442462809559282
947421382469443.4,11.29475087166478,1.1527427884300268
954425554573101.2,11.290778661839136,1.1612029907449415
961429726676759.1,11.286370357980001,1.169533910407283
968433898780417.0,11.282025846729105,1.17783046771097
975438070884074.9,11.277740792939177,1.186057052274037
982442242987732.6,11.273033407408859,1.1941852779433526
989446415091390.5,11.268386931464532,1.202250070071793
996450587195048.4,11.264241396491018,1.2103351410424608
1003454759298706.2,11.25947083118174,1.218230733348614
1010458931402364.1,11.254747410525784,1.2261270827369384
1017463103506022.0,11.249519036652837,1.2338889371400525
1024467275609679.8,11.245024979237787,1.2416858066937426
1031471447713337.6,11.240032209670133,1.249354355099389
1038475619816995.5,11.234970684322453,1.2569675391857391
1045479791920653.4,11.230308732232144,1.2645215286475022
1052483964024311.2,11.224791214235262,1.2719957963697943
1059488136127969.1,11.21921777452637,1.2793772493642408
1066492308231627.0,11.214107805487957,1.2867708263628186
1073496480335284.8,11.208643670857828,1.2940251055866192
1080500652438942.6,11.20332363642567,1.3012703724660513
1087504824542600.5,11.197702512629462,1.3084239115717975
1094508996646258.4,11.192208129883639,1.315516849457001
1101513168749916.2,11.186592513147682,1.3225530735114126
1108517340853574.1,11.180909184791279,1.3295272716042184
1115521512957231.9,11.175238797493307,1.3364413144660208
1122525685060889.8,11.169208278743248,1.3432799755024594
1129529857164547.5,11.163276386696612,1.3500314562279303
1136534029268205.5,11.157569038319858,1.356808070936917
1143538201371863.5,11.151817171829128,1.3634936582984951
1150542373475521.2,11.145517340502213,1.3700873006463856
1157546545579179.0,11.139672347597527,1.3766469834451633
1164550717682837.0,11.1334528106967,1.383110348275883
1171554889786494.8,11.127277372671736,1.3895523312893467
1178559061890152.5,11.120871684939356,1.3958761343341557
1185563233993810.5,11.114761902262005,1.4022139255189106
1192567406097468.5,11.108494966290984,1.4084971866443534
1199571578201126.2,11.10197713358268,1.4147011865076058
1206575750304784.0,11.095712306857182,1.4208577997657097
1213579922408442.0,11.089354449619748,1.4269575074027239
1220584094512099.8,11.083088880485134,1.4330305130634502
1227588266615757.5,11.07629676283862,1.4389593960225686
1234592438719415.5,11.069813838248301,1.4449056584085858
1241596610823073.5,11.063166348773436,1.450739472097426
1248600782926731.2,11.05661878986348,1.456577937013329
1255604955030389.0,11.049974709791123,1.462361758087009
1262609127134047.0,11.043352920847207,1.4680939367427466
1269613299237704.8,11.036620647452814,1.4737618098346594
1276617471341362.5,11.02994954820569,1.4793958599639372
1283621643445020.5,11.023316146871133,1.484978761908757
1290625815548678.5,11.016200195587421,1.4904546907754257
1297629987652336.0,11.009039488055345,1.4958581017772656
1304634159755994.0,11.002534877789907,1.5013053425864031
1311638331859652.0,10.995359068953178,1.5065936487014153
1318642503963309.8,10.98847910783996,1.5119195971117847
1325646676066967.5,10.98176346595472,1.5171422974855344
1332650848170625.5,10.975124093546842,1.522331212258378
1339655020274283.2,10.968052846027675,1.5273520410686945
1346659192377941.0,10.960980243578161,1.5323393339974538
1353663364481599.0,10.954161927210858,1.5373490706554245
1360667536585257.0,10.946954772192216,1.542209782320982
1367671708688914.8,10.940488684769685,1.5472043962467092
1374675880792572.5,10.9334581603929,1.552022037798157
1381680052896230.5,10.926159264798876,1.5567731227611867
1388684224999888.2,10.91922685017132,1.5615523275466632
1395688397103546.2,10.91240969864001,1.566297270019389
1402692569207204.0,10.90534608152905,1.5709667506508032
1409696741310861.8,10.898134765552465,1.5755333064507164
1416700913414519.8,10.890744074367982,1.5800329946011893
1423705085518177.5,10.883647895525687,1.5845633119313558
1430709257621835.5,10.876593466058505,1.5890678730919823
1437713429725493.2,10.869353941270218,1.5934716377566225
1444717601829151.2,10.861312129132905,1.5977225162836228
1451721773932809.0,10.855112908348184,1.6022406076998172
1458725946036466.8,10.84803633443496,1.606560791068683
1465730118140124.8,10.840395772918708,1.6107269570353087
1472734290243782.5,10.83325712150305,1.6149812912969777
1479738462347440.5,10.826003060814378,1.6191524094685243
1486742634451098.2,10.818569547192869,1.6232474040383742
1493746806554756.2,10.811695250221142,1.62739154052767
1500750978658414.0,10.804216312402927,1.631438140633391
1507755150762071.8,10.796861671242864,1.6354482337703957
1514759322865729.8,10.789681162829782,1.6394356996361104
1521763494969387.5,10.782200633810545,1.6433581738527618
1528767667073045.5,10.775167801825688,1.6473038473844925
1535771839176703.2,10.767560500655465,1.6510973314302435
1542776011280361.0,10.760298316012264,1.6549378504990644
1549780183384019.0,10.752959720835296,1.658718787787475
1556784355487676.8,10.745788857490618,1.6623636334833223
1563788527591334.8,10.73873929661789,1.6659425800666554
1570792699694992.5,10.731682245697103,1.6694345385319416
1577796871798650.5,10.724528783494504,1.6729063651603062
1584801043902308.2,10.717426498995579,1.6763299326560417
1591805216005966.0,10.709904280546555,1.6796944972494348
1598809388109624.0,10.70305337993202,1.6830849065486762
1605813560213281.8,10.69626110170481,1.6864928882404
1612817732316939.8,10.689399125706005,1.6897882338570882
1619821904420597.5,10.681976550164341,1.6930304856323497
1626826076524255.5,10.675042710122382,1.6962813288096383
1633830248627913.2,10.667969946577573,1.6995189635838788
1640834420731571.0,10.660889249518204,1.702675655540692
1647838592835229.0,10.653201358290614,1.7057316675880512
1654842764938886.8,10.646754502933302,1.7089092457098747
1661846937042544.8,10.638970670094132,1.7118974732175898
1668851109146202.5,10.632867215700617,1.715079478986252
1675855281249860.2,10.62554311184387,1.7180529142484573
1682859453353518.2,10.618333004072388,1.7209947265788357
1689863625457176.0,10.611112967207175,1.7239026804053315
1696867797560834.0,10.604194396170035,1.7268564454522934
1703871969664491.8,10.597018190063462,1.7297104128646117
1710876141768149.8,10.589973716586071,1.7325672521917248
1717880313871807.5,10.582790998669639,1.735366672913527
1724884485975465.2,10.575918736033556,1.738197677567448
1731888658079123.2,10.568767367524588,1.74095063038861
1738892830182781.0,10.561567310740012,1.7436614794848402
1745897002286439.0,10.5545079072275,1.7463571969021539
1752901174390096.8,10.546965399564206,1.7489604771325078
1759905346493754.8,10.54039659503039,1.7516790720228268
1766909518597412.5,10.533205776928908,1.7542736382257613
1773913690701070.2,10.526286820365376,1.756894678233923
1780917862804728.2,10.519201081904846,1.7594302302042903
1787922034908386.0,10.512094248699393,1.7619657341513995
1794926207012044.0,10.504918701292326,1.7644448293067143
1801930379115701.8,10.497806912408421,1.7669224704991604
1808934551219359.5,10.491331799238303,1.769262753919204
1815938723323017.5,10.48460121621348,1.7715179094319458
1822942895426675.2,10.478721372206111,1.7738819504564873
1829947067530333.2,10.470916809888418,1.7759333406866207
1836951239633991.0,10.465004384116583,1.7782247808542215
1843955411737649.0,10.458258964492119,1.7803666495530057
1850959583841306.8,10.45149197756345,1.7824882984176897
1857963755944964.5,10.445259121702486,1.7846891050029785
1864967928048622.5,10.438551517126344,1.7867521374415667
1871972100152280.2,10.431986892763506,1.788831199304954
1878976272255938.2,10.425407241871842,1.7908764679942086
1885980444359596.0,10.418888249375751,1.7929372095795495
1892984616463254.0,10.412241317095692,1.7949063294162797
1899988788566911.8,10.405782796721924,1.7968983433329346
1906992960670569.5,10.39915593730069,1.7988575327010423
1913997132774227.5,10.39214943566582,1.800731790813066
1921001304877885.2,10.385985117348012,1.8026816920146795
1928005476981543.2,10.379721312779779,1.8046229828147962
1935009649085201.0,10.37318977826563,1.8065081188520429
1942013821188859.0,10.366721036734223,1.8083443489449835
1949017993292516.8,10.359884701863805,1.8101279143026758
1956022165396174.5,10.353644367582211,1.8119886949291764
1963026337499832.5,10.347287039378182,1.8137764485937236
1970030509603490.2,10.340645744898401,1.8155042158316759
1977034681707148.2,10.334412764943897,1.817286058242236
1984038853810806.0,10.327862770344153,1.8190028187505314
1991043025914463.8,10.321511878512812,1.8207247005590173
1998047198018121.8,10.314985802186415,1.8223905704047552
2005051370121779.5,10.308551976978086,1.8240533484012649
2012055542225437.5,10.30176465871694,1.82564778222472
2019059714329095.2,10.295843084335642,1.8273507925655883
2026063886432753.2,10.28939307522091,1.8289561457807393
2033068058536411.0,10.28286251068237,1.8305280503854064
2040072230640068.8,10.276572657932975,1.8321160932745801
2047076402743726.8,10.270166851995505,1.833670121774559
2054080574847384.5,10.26374423387346,1.8351933380382968
2061084746951042.5,10.257333525213276,1.8366842573306374
2068088919054700.2,10.25123496215248,1.8382220908974143
2075093091158358.2,10.244910545099795,1.8396349156592677
2082097263262016.0,10.238989275868656,1.8409809334514167
2089101435365673.8,10.233109032711635,1.842348656579291
2096105607469331.8,10.226990235942,1.8436464241939918
2103109779572989.5,10.2209037725768,1.8449172046713291
2110113951676647.5,10.215522826379697,1.8462740127976085
2117118123780305.2,10.209701782591507,1.8475790405732748
2124122295883963.0,10.203729869431493,1.8488073672656908
2131126467987621.0,10.197908515822043,1.8500736981002581
2138130640091278.8,10.19208062780938,1.8513227079347856
2145134812194936.8,10.186226564776005,1.8525189272420368
2152138984298594.5,10.180383551827894,1.85373635434578
2159143156402252.5,10.174541571332407,1.8549018318616304
2166147328505910.2,10.168767418489915,1.8560738887800825
2173151500609568.0,10.162887179847376,1.8572058741303747
2180155672713226.0,10.157308369677752,1.8583896239626558
2187159844816883.8,10.151582781801965,1.8595259231568626
2194164016920541.8,10.145715480275365,1.8606290171544244
2201168189024199.5,10.140046812852626,1.8617455240330658
2208172361127857.5,10.134174190479534,1.8628033141873288
2215176533231515.2,10.128596122441685,1.8639214646420248
2222180705335173.0,10.122855784642919,1.8649442555304008
2229184877438831.0,10.117007106242246,1.8659578201099396
2236189049542488.8,10.111471311158814,1.8670318032656903
2243193221646146.8,10.105745392201348,1.8680480292384698
2250197393749804.5,10.099978226292597,1.869007193936223
2257201565853462.5,10.094504070819491,1.870046182981768
2264205737957120.0,10.088608657291944,1.8710098985513748
2271209910060778.0,10.08299956648594,1.87193959308074
2278214082164436.0,10.077471192685982,1.8729367989748398
2285218254268094.0,10.071709379837886,1.8738292433344121
2292222426371752.0,10.066124135340075,1.8747712639431435
2299226598475409.5,10.060632217855412,1.8757140140093267
2306230770579067.0,10.054935221207046,1.8765963752327262
2313234942682725.0,10.049321889127336,1.8774890626537588
2320239114786383.0,10.043813315012372,1.8783900444134443
2327243286890041.0,10.038236715209981,1.8792163488290128
2334247458993699.0,10.03266436493924,1.8801006216914655
2341251631097357.0,10.027058694597503,1.880930125340727
2348255803201014.5,10.02166213260493,1.8817621146771941
2355259975304672.0,10.0160783624402,1.8825970353819015
2362264147408330.0,10.010416641419223,1.883369547722279
2369268319511988.0,10.005467882762959,1.8841355034792495
2376272491615646.0,10.000055460527133,1.8848339849129354
2383276663719304.0,9.9951521956537,1.8856002174577624
2390280835822962.0,9.989967032377402,1.8862704906580285
2397285007926619.5,9.984999575850189,1.8869726116330543
2404289180030277.0,9.979882605454954,1.8876765725632432
2411293352133935.0,9.974872839824581,1.888354994394217
2418297524237593.0,9.969798836692485,1.8890298934658079
2425301696341251.0,9.96469222441196,1.8896858722612766
2432305868444909.0,9.959684982697166,1.8903303712551032
2439310040548566.5,9.954683104177908,1.8909813540151204
2446314212652224.5,9.949333253357038,1.8915619458518256
2453318384755882.0,9.944725511554141,1.8922180521367664
2460322556859540.0,9.939634899801968,1.8928469417186158
2467326728963198.0,9.934514938894406,1.8934286547725854
2474330901066856.0,9.929793994420653,1.8940498184977164
2481335073170514.0,9.92469208998992,1.8946251739193118
2488339245274171.5,9.919781653062552,1.8951952566078951
2495343417377829.5,9.91475219608787,1.895756008896512
2502347589481487.5,9.909880530075757,1.8963243785824164
2509351761585145.0,9.904891767271526,1.896856592521621
2516355933688803.0,9.900017381397271,1.8974163910442399
2523360105792461.0,9.895084804389121,1.8979508588583214
2530364277896118.5,9.890148855667103,1.898476367327839
2537368449999776.5,9.88534534683946,1.8989978007791946
2544372622103434.5,9.880386795128253,1.8994857499497257
2551376794207092.5,9.87559242754331,1.8999631902283696
2558380966310750.0,9.87058969632784,1.9004672757200598
2565385138414408.0,9.86574920591239,1.9009432239261002
2572389310518066.0,9.860946499247952,1.9014234041648719
2579393482621723.5,9.856208764565348,1.9018995250024398
2586397654725381.5,9.851319090112924,1.9023776878359706
2593401826829039.5,9.846394817795675,1.9027714895211678
2600405998932697.5,9.841623457513515,1.9032432942104678
2607410171036355.0,9.836923313775031,1.9037129776787365
2614414343140013.0,9.832173352990878,1.9041315013998397
2621418515243671.0,9.827361252139529,1.9045585310892306
2628422687347328.5,9.822477567790093,1.9049603963241744
2635426859450986.5,9.817820966234024,1.9053790145758143
2642431031554644.5,9.812863769348686,1.9057420294856122
2649435203658302.5,9.80832318618618,1.9061783735482207
2656439375761960.0,9.803508754631457,1.9065510134513581
2663443547865618.0,9.798860791513786,1.906917273744756
2670447719969276.0,9.79415140575569,1.9073002374894248
2677451892072933.5,9.78949513114633,1.9076149770224142
2684456064176591.5,9.785336596152398,1.9080020823614785
2691460236280249.5,9.780753026906183,1.9083164013895944
2698464408383907.5,9.776346527660763,1.9086209014005013
2705468580487565.0,9.771989212097434,1.9089410327379563
2712472752591223.0,9.767354631241545,1.909208937908967
2719476924694881.0,9.763199045354256,1.9095282208423288
2726481096798538.5,9.758943831071887,1.9098699748762729
2733485268902196.5,9.754624049401627,1.9101667859825644
