Central Density (g/cm^3),Radius (km),Mass (M_sun)
240000000000000.0,16.985087845996738,0.2257818515746374
248415872074671.94,16.42776828388169,0.24115607841359862
256831744149343.88,15.967950945233529,0.25702198131728954
265247616224015.84,15.584218422889947,0.273354221277434
273663488298687.78,15.263657551362487,0.29000571697211464
282079360373359.75,15.052376056697033,0.30296001786331445
290495232448031.7,14.868867198639249,0.3157350244271684
298911104522703.6,14.708140089571675,0.3283397929908863
307326976597375.56,14.565337052440656,0.3407899220120974
315742848672047.5,14.43767785754527,0.3530890019909657
324158720746719.44,14.322365146498887,0.3652468915060913
332574592821391.4,14.217805737323717,0.377269441684269
340990464896063.3,14.122249330496173,0.3891667080977181
349406336970735.25,14.034452753522825,0.4009295077558115
357822209045407.25,13.953252663842187,0.41258351743219607
366238081120079.2,13.877918479869454,0.42411590164388735
374653953194751.1,13.807714003444222,0.435543680138667
383069825269423.06,13.741893774453397,0.4468648003206465
391485697344095.0,13.680194797479562,0.45806847652005067
399901569418766.94,13.621881503716637,0.4691694335434164
408317441493438.9,13.566842632586656,0.48017783837516814
416733313568110.9,13.515054517524305,0.4910337258624656
425149185642782.75,13.466347023071783,0.5015405972422923
433565057717454.75,13.420453279888822,0.5119785225585027
441980929792126.6,13.376376738834665,0.5222940899829783
450396801866798.6,13.333774427430544,0.5324513371942221
458812673941470.56,13.293395852118103,0.542584468080615
467228546016142.5,13.254344281979362,0.5525718796697819
475644418090814.44,13.216710809033925,0.5624558558993143
484060290165486.4,13.180296054708267,0.5722392335361878
492476162240158.4,13.145142758930456,0.5819310964567638
500892034314830.25,13.110624985728652,0.5914909861425577
509307906389502.25,13.077618542660039,0.6010023245974718
517723778464174.1,13.045414553670795,0.610413023952023
526139650538846.1,13.014097041395335,0.6197261302883718
534555522613518.06,12.983585431718904,0.6289459317380963
542971394688190.0,12.953667530723573,0.6380802120868853
551387266762861.94,12.924386368434941,0.6471163291450962
559803138837533.9,12.896146568728948,0.6560786559131722
568219010912205.8,12.868530916426746,0.6648224914949196
576634882986877.8,12.841689045765257,0.6734754622897242
585050755061549.8,12.815481052707709,0.6820595161441477
593466627136221.8,12.789351090279407,0.6905029848024522
601882499210893.6,12.764106340165224,0.6988948226680908
610298371285565.5,12.739065129648818,0.7071864156107335
618714243360237.5,12.714713394559878,0.715420738844735
627130115434909.5,12.690442639553234,0.7235410459043154
635545987509581.4,12.666718193541032,0.7316054112140912
643961859584253.2,12.643259586149496,0.7395704998022143
652377731658925.2,12.620359891599708,0.7474886455911548
660793603733597.2,12.597503636188755,0.7552767292896321
669209475808269.2,12.575230372753456,0.7630400490632133
677625347882941.1,12.552784394203385,0.7706778353712158
686041219957613.0,12.530803939258112,0.7782587679250553
694457092032285.0,12.509483819540735,0.785805316206636
702872964106957.0,12.488271655078465,0.7932731076749713
711288836181628.9,12.467337257153343,0.8006067354996433
719704708256300.8,12.446307790941047,0.807768101939494
728120580330972.8,12.426122330404404,0.8149165572561596
736536452405644.8,12.405808883048786,0.821938059107538
744952324480316.8,12.386141633192269,0.8289422357583476
753368196554988.6,12.366457269324174,0.8358543494173025
761784068629660.5,12.34658230843189,0.8426648415505068
770199940704332.5,12.32744484424555,0.8494542182566447
778615812779004.5,12.308246767783272,0.8561398471424571
787031684853676.4,12.289053854073712,0.8627736142432477
795447556928348.2,12.270247868610827,0.8693369522892666
803863429003020.2,12.251537169666092,0.8758262624955969
812279301077692.2,12.232987700128584,0.8822641331592522
820695173152364.1,12.214609153749146,0.8886278847121677
829111045227036.1,12.196629844607026,0.8949790355439855
837526917301708.0,12.178178101511284,0.9011902142216248
845942789376380.0,12.160385333233952,0.9073891857724357
854358661451051.9,12.142622949180721,0.9135204692665029
862774533525723.9,12.124808784977175,0.9195844465593079
871190405600395.9,12.107209245112713,0.9254815896170627
879606277675067.8,12.090180138961431,0.9313655868220616
888022149749739.8,12.073046688951647,0.9371586271645918
896438021824411.6,12.05600839393934,0.9428957620071527
904853893899083.6,12.039242226519647,0.9485939008530997
913269765973755.5,12.022397622537396,0.954201160836689
921685638048427.5,12.00587632888001,0.9597827961278219
930101510123099.4,11.989240887235319,0.9652930251011078
938517382197771.4,11.972911622869242,0.9707472741846961
946933254272443.4,11.956458017918424,0.9761508203932082
955349126347115.2,11.940405399488169,0.9815159902339877
963764998421787.2,11.923958207022784,0.9867853250120195
972180870496459.1,11.908061923882558,0.9920306053381175
980596742571131.1,11.89222473786856,0.9972450986988711
989012614645803.0,11.87642340254787,1.0023795400287356
997428486720475.0,11.86052688563509,1.0074504981715733
1005844358795146.9,11.844800095299172,1.0124747354960386
1014260230869818.9,11.829082640077376,1.0174667377726148
1022676102944490.9,11.813689271692093,1.0223934957436833
1031091975019162.8,11.798550064344907,1.0272309351297282
1039507847093834.8,11.783222836452778,1.031979651470152
1047923719168506.6,11.768242097517676,1.0367054295626628
1056339591243178.6,11.753400785866669,1.0413906620371693
1064755463317850.5,11.738491596711116,1.0460168499018716
1073171335392522.5,11.723559006688884,1.0505688865973968
1081587207467194.4,11.708839822175095,1.0551166964583076
1090003079541866.4,11.69398839164105,1.0595948819757468
1098418951616538.4,11.679626092758589,1.064061834904554
1106834823691210.2,11.6649913202954,1.068443477608867
1115250695765882.2,11.650641781515326,1.0728101378660513
1123666567840554.1,11.636161032991854,1.0771099150361612
1132082439915226.0,11.621902894399346,1.0813884356652688
1140498311989898.0,11.607628454670905,1.0856046407064928
1148914184064570.0,11.593324618708133,1.0897783469373425
1157330056139242.0,11.579443637137619,1.0939360594950922
1165745928213914.0,11.565189510184627,1.0980156107601655
1174161800288586.0,11.551127083669362,1.1020770870104113
1182577672363257.8,11.537279115591529,1.106101025983559
1190993544437929.8,11.523627996385192,1.1100273045311717
1199409416512601.5,11.510044156318962,1.1139112377307478
1207825288587273.5,11.4962779146612,1.1177166900587667
1216241160661945.5,11.483038207762405,1.1215650371418535
1224657032736617.5,11.469648679234355,1.1253464369591313
1233072904811289.5,11.45611394420863,1.12904914932124
1241488776885961.5,11.442850228912604,1.1327437799458948
1249904648960633.5,11.429555317001324,1.136363177423595
1258320521035305.2,11.416290226208773,1.1399989169952252
1266736393109977.2,11.403190679648393,1.1435704505156434
1275152265184649.0,11.390147981334163,1.147124118127608
1283568137259321.0,11.3772663717005,1.1506495661132774
1291984009333993.0,11.364339825186413,1.1541328306556495
1300399881408665.0,11.351160226554962,1.157532975624311
1308815753483337.0,11.338475653259255,1.1609649141979703
1317231625558009.0,11.32553858019424,1.1643119351941984
1325647497632681.0,11.31287190051568,1.1676670436096326
1334063369707352.8,11.300052133913308,1.1709651191917192
1342479241782024.8,11.28745718444091,1.1742453701328863
1350895113856696.5,11.27485248276854,1.1774558232521883
1359310985931368.5,11.262474436770908,1.1806334068394315
1367726858006040.5,11.250257637590892,1.183774845117065
1376142730080712.5,11.237823137547748,1.1868548756468633
1384558602155384.5,11.225633724309146,1.1899237555119477
1392974474230056.2,11.213473120182929,1.1929635988881913
1401390346304728.2,11.201316516401102,1.1959560103836413
1409806218379400.2,11.189200484263496,1.1989458922276204
1418222090454072.2,11.177283440583722,1.2018877914100663
1426637962528744.2,11.16517889537321,1.2047772789862061
1435053834603416.0,11.153345354694718,1.207664692504272
1443469706678088.0,11.14138142016952,1.2105290632949786
1451885578752760.0,11.129534394647685,1.2133500802512618
1460301450827432.0,11.117888263959252,1.2161846603125666
1468717322902103.8,11.106003725104452,1.2189303416160664
1477133194976775.8,11.094292158008658,1.221680907441405
1485549067051447.8,11.082679840673302,1.2244111850829091
1493964939126119.8,11.071071177545734,1.2271008073917427
1502380811200791.8,11.059504818718976,1.2297718484899207
1510796683275463.5,11.04794842666943,1.232406943811925
1519212555350135.5,11.036450712612625,1.2350127979691978
1527628427424807.5,11.025203177174044,1.237557915172815
1536044299499479.5,11.013824405309162,1.2400418187796116
1544460171574151.2,11.002916412695194,1.2425278222980531
1552876043648823.2,10.991884080824493,1.2450023186870682
1561291915723495.2,10.980887938983752,1.247437763833849
1569707787798167.2,10.969749823507358,1.2498227336563639
1578123659872839.2,10.958886103636296,1.2522118348252398
1586539531947511.0,10.948098450461893,1.2545748994075352
1594955404022183.0,10.937071452200849,1.2569135519313965
1603371276096855.0,10.925976312984842,1.2591885247938754
1611787148171527.0,10.91528927960463,1.2614758153307637
1620203020246198.8,10.904565348084413,1.2637444487134815
1628618892320870.8,10.893948728191877,1.2660044990069528
1637034764395542.8,10.883293076355834,1.2682187966902683
1645450636470214.8,10.872532677331268,1.2704102575500797
1653866508544886.8,10.861983169024615,1.2725798427243127
1662282380619558.5,10.851722740971118,1.2747515573349646
1670698252694230.5,10.8409941103736,1.2768635688487215
1679114124768902.5,10.830375231887398,1.2789601240280781
1687529996843574.5,10.819942975297073,1.281042717253057
1695945868918246.2,10.809723742602943,1.2831452777444374
1704361740992918.2,10.79926230341263,1.2851866116297346
1712777613067590.2,10.789007464945037,1.2872152351815898
1721193485142262.2,10.778658761363786,1.2892051754918197
1729609357216934.2,10.768271103390669,1.2911841604894216
1738025229291606.0,10.757966013279175,1.293150442141829
1746441101366278.0,10.747651036104466,1.2950938998264256
1754856973440950.0,10.737477146130827,1.2970013315733748
1763272845515622.0,10.727623804377535,1.2989403718031776
1771688717590293.8,10.717557594200116,1.3008295679034152
1780104589664965.8,10.707255550118312,1.3026711727003577
1788520461739637.8,10.697340322139532,1.3045403248681817
1796936333814309.8,10.687317532241279,1.306354151785012
1805352205888981.8,10.677381101200664,1.308174947477016
1813768077963653.5,10.667441285744827,1.309974998672394
1822183950038325.5,10.657583447230492,1.3117587556724544
1830599822112997.5,10.647646347698677,1.3135226586192785
1839015694187669.5,10.637907671242703,1.3152744022306255
1847431566262341.2,10.62818110243269,1.3170115230471962
1855847438337013.2,10.618311137857752,1.3187059258327654
1864263310411685.2,10.608625872557015,1.3204004040020136
1872679182486357.2,10.598867627341372,1.3220660690705084
1881095054561029.2,10.589302062392292,1.3237150793871066
1889510926635701.0,10.579890759524384,1.3253331408994773
1897926798710373.0,10.570572349428094,1.3269339940285279
1906342670785045.0,10.560933038544285,1.328483309144527
1914758542859717.0,10.551785144433088,1.3300560930453567
1923174414934388.8,10.542483222554807,1.3316156878071004
1931590287009060.8,10.533253470913921,1.3331325030461623
1940006159083732.8,10.524178036214835,1.3346403243885299
1948422031158404.8,10.514658085181804,1.3361211126262966
1956837903233076.8,10.505578357156695,1.3376390953279478
1965253775307748.5,10.496538774939957,1.3391217116424337
1973669647382420.5,10.487168480281573,1.3405239080981493
1982085519457092.5,10.47821715316526,1.3419898540940798
1990501391531764.5,10.469012911967999,1.3433929850891946
1998917263606436.2,10.46015247518558,1.3448202898150188
2007333135681108.2,10.451110959988416,1.3462063142598324
2015749007755780.2,10.442178423010386,1.3476030154079943
2024164879830452.2,10.43312962184166,1.3489655358413315
2032580751905124.2,10.424406696132257,1.350319588488001
2040996623979796.0,10.41567192855658,1.3517188408757685
2049412496054468.0,10.406590320970976,1.3529889173414433
2057828368129140.0,10.397824205524138,1.3543051351178332
2066244240203812.0,10.389235520292926,1.3556050768339492
2074660112278483.8,10.380400087171827,1.3568648720688097
2083075984353155.8,10.371742136501014,1.3581216750903593
2091491856427827.8,10.363303484182127,1.359356332764015
2099907728502499.8,10.354601558305822,1.360598959468694
2108323600577171.8,10.34619946070069,1.3618342572433788
2116739472651843.5,10.337664284930748,1.36301970118425
2125155344726515.5,10.329130377661974,1.364218480384767
2133571216801187.5,10.32057075517857,1.3653944064000132
2141987088875859.5,10.312276815237196,1.366571601472202
2150402960950531.2,10.30391988360823,1.3677226139017877
2158818833025203.2,10.295525094816867,1.3688743572659787
2167234705099875.2,10.28701845072612,1.3699974136373572
2175650577174547.2,10.278860579198334,1.3711344228983253
2184066449249219.2,10.270545529313496,1.3722456881740397
2192482321323891.0,10.26224417117394,1.3733249339997762
2200898193398563.0,10.253805803742113,1.3744144451338969
2209314065473235.0,10.245741432665517,1.3754773748803368
2217729937547907.0,10.237763967681278,1.3765643138204056
2226145809622578.8,10.229210866977489,1.377612634910147
2234561681697250.8,10.221315598299476,1.3786497890799805
2242977553771922.8,10.213282493968983,1.379703686348204
2251393425846594.8,10.204236939290965,1.3806737885961253
2259809297921267.0,10.19718984374693,1.3817217968029436
2268225169995938.5,10.188947973852756,1.3826721569206541
2276641042070610.5,10.181299980799084,1.3836965249308697
2285056914145282.5,10.173344986283047,1.3846522582173288
2293472786219954.5,10.165585732274733,1.3855997716341386
2301888658294626.0,10.157607298550365,1.3865641256641854
2310304530369298.0,10.149854992209447,1.3874962580442294
2318720402443970.0,10.142095340339106,1.388414438487086
2327136274518642.0,10.13431954137983,1.3893446058813992
2335552146593314.0,10.126544183286985,1.3902298438548664
2343968018667986.0,10.11881982983216,1.3911362247923873
2352383890742658.0,10.111122393662445,1.3920265115110781
2360799762817330.0,10.103504217196368,1.3929178471253392
2369215634892002.0,10.095852574475384,1.3937718946725082
2377631506966674.0,10.088215290757919,1.3946366669435113
2386047379041346.0,10.080616969373175,1.3954765707763237
2394463251116018.0,10.07300667520188,1.396329500830371
2402879123190690.0,10.065483967471078,1.3971577738707208
2411294995265362.0,10.05833073366968,1.398001340068299
2419710867340033.5,10.050333637837188,1.3988039670501669
2428126739414705.5,10.043027165135577,1.399624447060356
2436542611489377.5,10.0356159209663,1.400440694525636
2444958483564049.5,10.028163089392464,1.4012336061119417
2453374355638721.0,10.020631928101485,1.4019760130155627
2461790227713393.0,10.013321069882197,1.4027456242669893
2470206099788065.0,10.006116311956962,1.4034884423930647
2478621971862737.0,9.998775812540178,1.4042285257823495
2487037843937409.0,9.991753544499934,1.405002399090624
2495453716012081.0,9.984476585086698,1.4057143633715217
2503869588086753.0,9.97732762169924,1.406446219321431
2512285460161425.0,9.970158476259805,1.4071574974476022
2520701332236097.0,9.962804377664948,1.4078644909964764
2529117204310769.0,9.955728447801574,1.4085606969129771
2537533076385441.0,9.948625041033589,1.4092544802872637
2545948948460112.5,9.941574297282576,1.4099305167152845
2554364820534784.5,9.934520132997907,1.410621943394698
2562780692609456.5,9.927363014869984,1.411285952760669
2571196564684128.5,9.920241933319572,1.4119230402479848
2579612436758800.5,9.913498547343154,1.412623039741007
2588028308833472.5,9.906411022197814,1.4132674186807872
2596444180908144.5,9.899409580137998,1.41386570741947
2604860052982816.5,9.892510747134747,1.4145186576580127
2613275925057488.5,9.885633214841292,1.4151418935350943
2621691797132160.0,9.878777398349651,1.4157637432304506
2630107669206832.0,9.87177059249083,1.416372168191221
2638523541281504.0,9.864834006773561,1.4169477861270219
2646939413356176.0,9.858117768632251,1.417573138034717
2655355285430848.0,9.851332503528518,1.418148485941363
2663771157505520.0,9.84459881555184,1.4187500109499498
2672187029580192.0,9.837975682922082,1.419332101303937
2680602901654864.0,9.83112878196248,1.419881446018431
2689018773729536.0,9.824526641297046,1.4204486012001831
2697434645804207.5,9.818353939065302,1.4209988622339584
2705850517878879.5,9.811257564195646,1.4215270629016246
2714266389953551.5,9.80468442706518,1.4220660237717933
2722682262028223.5,9.797963957785305,1.4225825161496366
2731098134102895.5,9.79153854018789,1.4231533653226367
2739514006177567.5,9.78490764899108,1.423645275411782
2747929878252239.5,9.77842545075053,1.4241495262523656
2756345750326911.5,9.771960474752172,1.4246775151293165
2764761622401583.5,9.765339267427786,1.4251716188132997
2773177494476255.0,9.758943539245786,1.4256764417157355
2781593366550927.0,9.75234610501821,1.4261439890602217
2790009238625599.0,9.745934254043641,1.4266195234004764
2798425110700271.0,9.739469560878495,1.4270971470658262
2806840982774943.0,9.733070156640075,1.4275907482670058
2815256854849615.0,9.726737603886338,1.4280699680557207
2823672726924287.0,9.720356904275809,1.4285360843131003
2832088598998959.0,9.71413475859009,1.4289806350129346
2840504471073631.0,9.707546726285031,1.4293946770275379
2848920343148302.5,9.70134404808878,1.4298558519597764
2857336215222974.5,9.695143098305788,1.430300858432776
2865752087297646.5,9.688936587926435,1.4307442951262326
2874167959372318.5,9.682556191331553,1.4311441457605836
2882583831446990.5,9.676454340946647,1.43154881589018
2890999703521662.5,9.670338633004027,1.4319993316534694
2899415575596334.5,9.664050509032402,1.432378754075408
2907831447671006.5,9.658056771581666,1.432811072123286
2916247319745678.5,9.652009777610814,1.433199673896103
2924663191820350.0,9.64588704016432,1.4336113868149025
2933079063895022.0,9.639955455036528,1.4340324910978428
2941494935969694.0,9.63380529775484,1.4343731634924
2949910808044366.0,9.627535871314022,1.434702355043075
2958326680119038.0,9.621809147569646,1.435142868369202
2966742552193710.0,9.61558009769119,1.4354701740648994
2975158424268382.0,9.609538298915,1.4358113339446903
2983574296343054.0,9.603718808958215,1.4362074295865461
2991990168417726.0,9.597799864324967,1.4365575314964398
3000406040492397.5,9.591875079183414,1.4369153656509135
3008821912567069.5,9.585882404720097,1.437238089563228
3017237784641741.5,9.57990460867979,1.437595939743933
3025653656716413.5,9.574004084037528,1.4379212125052578
3034069528791085.5,9.56820772310599,1.4382604330984177
3042485400865757.5,9.562182477163825,1.4385907611794064
3050901272940429.5,9.556445147749587,1.4389307665043791
3059317145015101.5,9.55068245260281,1.439237804264614
3067733017089773.5,9.544748586162841,1.4395325985109217
3076148889164445.0,9.53912388859276,1.4398470351329749
3084564761239117.0,9.533354528904662,1.4401447079510783
3092980633313789.0,9.527653257232044,1.440454394535455
3101396505388461.0,9.52180892079942,1.4407008325048596
3109812377463133.0,9.516176727740527,1.4409837315777865
3118228249537805.0,9.510514174204259,1.4412779593086724
3126644121612477.0,9.504856794578663,1.4415901929481805
3135059993687149.0,9.499346235923904,1.4418582398101734
3143475865761821.0,9.493718813639212,1.4421323208462535
3151891737836492.5,9.48810055130387,1.4424162374612004
3160307609911164.5,9.48244616670861,1.4426804514719984
3168723481985836.5,9.47689263863301,1.4429344945136693
3177139354060508.5,9.471491613889917,1.443190862205403
3185555226135180.5,9.465762091218533,1.4434294991884415
3193971098209852.5,9.460313228915266,1.4436994087686317
3202386970284524.5,9.454897475152897,1.4439651979370796
3210802842359196.5,9.449954445314221,1.4442064068453215
3219218714433868.5,9.44389529116489,1.4444372866344746
