Central Density (g/cm^3),Radius (km),Mass (M_sun)
240000000000000.0,20.0,0.09870961714551224
247004172103657.84,20.0,0.10102218674827244
254008344207315.72,20.0,0.10362136340590986
261012516310973.56,20.0,0.10652551919637093
268016688414631.44,20.0,0.10979635724977696
275020860518289.28,20.0,0.11349656931969848
282025032621947.1,20.0,0.11765507449807637
289029204725605.0,20.0,0.12233276717089629
296033376829262.9,20.0,0.12755493843033067
303037548932920.7,20.0,0.13333713587202925
310041721036578.56,20.0,0.1396825463374245
317045893140236.4,19.15143303283575,0.146610854815097
324050065243894.25,18.052896731681656,0.1541024647704
331054237347552.1,17.127178250705565,0.16213359394051613
338058409451210.0,16.34513180853269,0.1706634244322628
345062581554867.8,15.68460927108689,0.17964919316040742
352066753658525.7,15.124472485530042,0.18905151629688813
359070925762183.56,14.647400210103921,0.19884200400871152
366075097865841.4,14.239700658695055,0.2089920720503096
373079269969499.25,13.889045763436803,0.2194795011199035
380083442073157.1,13.586350106242218,0.23027564220721536
387087614176815.0,13.325074046468856,0.2413588987713249
394091786280472.8,13.098033271343136,0.25271026058420454
401095958384130.7,12.900022933235562,0.26430988943007633
408100130487788.5,12.726690633742434,0.27612652162650364
415104302591446.4,12.575626146511151,0.2881538483086558
422108474695104.25,12.442110943519829,0.3003596923753439
429112646798762.1,12.32506073249147,0.31273822374895305
436116818902419.94,12.221847314105455,0.325271047170524
443120991006077.8,12.13120723788955,0.33793717868835527
450125163109735.6,12.050307295240113,0.3507171212787655
457129335213393.5,11.978884217006396,0.36360498921416007
464133507317051.4,11.915645625256866,0.3765840167005254
471137679420709.25,11.859535672693925,0.3896415515112769
478141851524367.1,11.809665365787179,0.4027582617110727
485146023628024.94,11.765192174778171,0.41592445180172627
492150195731682.8,11.72548091891623,0.4291293011252481
499154367835340.6,11.690369141069356,0.4423622290826687
506158539938998.5,11.658963595960579,0.4556139331411359
513162712042656.4,11.631043633319582,0.46887139175376075
520166884146314.25,11.605992378565551,0.48212490625231297
527171056249972.06,11.583639878858905,0.49536676394807816
534175228353629.94,11.563600480475936,0.5085901593358227
541179400457287.8,11.545972399207265,0.5217930385427773
548183572560945.6,11.529822597668785,0.534955555348276
555187744664603.5,11.515555978184796,0.5480879587343781
562191916768261.4,11.502850035430775,0.561182690989222
569196088871919.2,11.491227457311883,0.5742195107634751
576200260975577.0,11.481196632357701,0.5872174794824847
583204433079235.0,11.471829364703336,0.6001521188853076
590208605182892.8,11.463584289915755,0.6130320115596584
597212777286550.6,11.45617473344517,0.6258535795046473
604216949390208.5,11.449540327017521,0.6386027933350282
611221121493866.2,11.443345244101819,0.6512828517519632
618225293597524.2,11.437886069221602,0.6638911081082224
625229465701182.0,11.433064060185032,0.6764286137612024
632233637804839.9,11.428579562793075,0.6888850246403058
639237809908497.8,11.424492921869259,0.7012641074886433
646241982012155.6,11.420699428411327,0.7135598563141432
653246154115813.5,11.417259317527316,0.7257726721762617
660250326219471.2,11.414090934174848,0.7379015741528051
667254498323129.2,11.41111777619299,0.7499422481957592
674258670426787.0,11.408300280192616,0.7618944239236637
681262842530444.9,11.405666333474011,0.7737582618984058
688267014634102.8,11.40320184415755,0.7855328337634226
695271186737760.6,11.400726206138902,0.7972124849921004
702275358841418.5,11.398490358001387,0.8088016896469746
709279530945076.2,11.396318461029598,0.8202994824491617
716283703048734.2,11.394257761061068,0.8317030904627942
723287875152392.0,11.392158025509936,0.8430132221658763
730292047256049.9,11.390058985191478,0.854222657521694
737296219359707.8,11.387926045444033,0.865337199158786
744300391463365.6,11.38586786859355,0.8763603398022767
751304563567023.5,11.383773729894969,0.8872906159200665
758308735670681.2,11.381764902595863,0.8981266854409254
765312907774339.2,11.379623358536065,0.9088655624092887
772317079877997.0,11.377407109770262,0.9195075009708411
779321251981654.9,11.375221495740842,0.930057430341137
786325424085312.8,11.372905935246447,0.9405137015180217
793329596188970.5,11.370700598670416,0.9508789529950061
800333768292628.5,11.3682952235959,0.9611482829632755
807337940396286.2,11.365771858280308,0.9713244673510071
814342112499944.1,11.363303915248203,0.9814148506855853
821346284603602.0,11.360732065109943,0.9914053442919936
828350456707259.9,11.357927009861815,1.0013043194857543
835354628810917.8,11.355179108933907,1.0111167013853724
842358800914575.6,11.3523595096922,1.020839402753279
849362973018233.4,11.349499897611887,1.0304751697706471
856367145121891.2,11.346502556418486,1.0400213792357769
863371317225549.1,11.343595198331583,1.0494825790909605
870375489329207.0,11.340418884650243,1.0588543687167153
877379661432864.9,11.337213614471185,1.0681421268478668
884383833536522.8,11.33400278117443,1.0773454865783332
891388005640180.5,11.330537529418823,1.0864606576396205
898392177743838.4,11.32704806970445,1.095494487691885
905396349847496.2,11.32349831547133,1.1044455759400928
912400521951154.1,11.31990792652055,1.1133155033874815
919404694054812.0,11.316185366051714,1.1221040150158579
926408866158469.9,11.312370623532201,1.1308125160497375
933413038262127.8,11.308482524997391,1.1394421195169786
940417210365785.5,11.304436228252634,1.1479931268025487
947421382469443.4,11.300360055668277,1.156467116971543
954425554573101.2,11.296230422270503,1.1648648762305387
961429726676759.1,11.292069917921483,1.1731877907191306
968433898780417.0,11.287736344468653,1.1814354420664461
975438070884074.9,11.283366621453686,1.1896097935244216
982442242987732.6,11.27894929233678,1.1977117470092127
989446415091390.5,11.274377848684752,1.2057411400397062
996450587195048.4,11.26981225936915,1.213700058626837
1003454759298706.2,11.26520230568155,1.2215900666411197
1010458931402364.1,11.260302420532978,1.2294068632796344
1017463103506022.0,11.255518171628118,1.2371597298664192
1024467275609679.8,11.250541871441893,1.2448392610736936
1031471447713337.6,11.245646199218752,1.2524573429980794
1038475619816995.5,11.240689821187424,1.2600064237726847
1045479791920653.4,11.23544194461656,1.2674861151438994
1052483964024311.2,11.2302469938148,1.274905922807899
1059488136127969.1,11.225018617722997,1.2822616005638234
1066492308231627.0,11.219664940776228,1.2895569141617476
1073496480335284.8,11.214264143483886,1.2967884750195937
1080500652438942.6,11.208771908808286,1.3039586916978838
1087504824542600.5,11.203351058640026,1.3110702442692692
1094508996646258.4,11.197720200717267,1.3181153562239856
1101513168749916.2,11.192032942147758,1.3251064679699034
1108517340853574.1,11.186368303080581,1.3320375991060769
1115521512957231.9,11.180567393146884,1.3389113865706928
1122525685060889.8,11.174742516978064,1.345726747735447
1129529857164547.5,11.168870438607986,1.3524905716256834
1136534029268205.5,11.162850435877976,1.3591842256059266
1143538201371863.5,11.156941730424949,1.3658257518295118
1150542373475521.2,11.150852044150536,1.3724116528615837
1157546545579179.0,11.14475178391155,1.3789457336262843
1164550717682837.0,11.138639356391002,1.385410439930584
1171554889786494.8,11.132416302951999,1.3918285005394777
1178559061890152.5,11.126218608664542,1.3981839798944984
1185563233993810.5,11.119922333077211,1.404467288522101
1192567406097468.5,11.113582018977816,1.4107107503283238
1199571578201126.2,11.107166933639439,1.4169100288323373
1206575750304784.0,11.100761327418509,1.4230479121298438
1213579922408442.0,11.094270912896528,1.4291236506968177
1220584094512099.8,11.08783325280839,1.4351472886014827
1227588266615757.5,11.081254663312196,1.4411074626689586
1234592438719415.5,11.074667597547913,1.4470161585917654
1241596610823073.5,11.067942386495686,1.4528667164432312
1248600782926731.2,11.06138225934777,1.4586703796642537
1255604955030389.0,11.054668081824914,1.4644161028353577
1262609127134047.0,11.047877847067705,1.4701066951652255
1269613299237704.8,11.04114555810541,1.4757270580525224
1276617471341362.5,11.034420293374579,1.4813298989320425
1283621643445020.5,11.027583840284636,1.4868584113581154
1290625815548678.5,11.020762723713945,1.4923371312760916
1297629987652336.0,11.013911299539327,1.4977617827434917
1304634159755994.0,11.006984906013704,1.5031303934729385
1311638331859652.0,11.000043754479472,1.5084503676747683
1318642503963309.8,10.993107205275315,1.5137085129319676
1325646676066967.5,10.986165846478206,1.518921492784278
1332650848170625.5,10.97918078495788,1.5240853731313282
1339655020274283.2,10.972158829659186,1.529199596389005
1346659192377941.0,10.965115645591629,1.5342622358400078
1353663364481599.0,10.958077002205611,1.5392740335203312
1360667536585257.0,10.95104894303158,1.5442360732340354
1367671708688914.8,10.944093433631656,1.549159740278164
1374675880792572.5,10.936938715100167,1.5540188501030663
1381680052896230.5,10.929730129120717,1.5588103773704602
1388684224999888.2,10.922622105572884,1.5635686271757776
1395688397103546.2,10.915480335168363,1.568279180775466
1402692569207204.0,10.90832713834448,1.5729368481977508
1409696741310861.8,10.901205997455039,1.5775709179465742
1416700913414519.8,10.894024671884125,1.582137643501447
1423705085518177.5,10.886844430651374,1.5866556511128984
1430709257621835.5,10.879649520696619,1.5911260767475257
1437713429725493.2,10.872423427658253,1.5955498216807484
1444717601829151.2,10.865220847595044,1.5999263709469398
1451721773932809.0,10.858007706722255,1.6042549549901524
1458725946036466.8,10.850796209501846,1.6085371060997644
1465730118140124.8,10.843557804953358,1.612767772791795
1472734290243782.5,10.83632370986184,1.6169589178120072
1479738462347440.5,10.829097183272253,1.6211084277033705
1486742634451098.2,10.821865180603353,1.6252113463507547
1493746806554756.2,10.814617139936058,1.629268210350941
1500750978658414.0,10.807364513049851,1.6332794426434005
1507755150762071.8,10.800148616914948,1.6372556237767142
1514759322865729.8,10.792853533811094,1.6411821093194445
1521763494969387.5,10.785593611573674,1.6450641003119173
1528767667073045.5,10.7783956728017,1.6489029970550024
1535771839176703.2,10.771135946356603,1.6526875893342927
1542776011280361.0,10.763871772754046,1.6564515415390353
1549780183384019.0,10.756605983389148,1.660164355758467
1556784355487676.8,10.749409852969206,1.6638386012849675
1563788527591334.8,10.742206027000726,1.6674668243899442
1570792699694992.5,10.734835984163885,1.6710169783025934
1577796871798650.5,10.727657785279288,1.6745731249610771
1584801043902308.2,10.720485136584015,1.6780868901062171
1591805216005966.0,10.713277982281099,1.681557970621053
1598809388109624.0,10.706043127997413,1.6849880038711966
1605813560213281.8,10.69885567457744,1.688370438027224
1612817732316939.8,10.691666226243042,1.6917157306967112
1619821904420597.5,10.684441785961157,1.6950237819724254
1626826076524255.5,10.677249355380066,1.698294199281962
1633830248627913.2,10.670075845609947,1.7015199948645277
1640834420731571.0,10.662879446981833,1.7047083667422127
1647838592835229.0,10.65569836205272,1.707851257412313
1654842764938886.8,10.648546553551546,1.7109693662028602
1661846937042544.8,10.641486028763715,1.7140517209906296
1668851109146202.5,10.634307096575219,1.7171033689999915
1675855281249860.2,10.627197099651497,1.7201032269485386
1682859453353518.2,10.620099569302928,1.7230713289033535
1689863625457176.0,10.612946677700899,1.7259949389808624
1696867797560834.0,10.605850577376815,1.7288910075140547
1703871969664491.8,10.598943662274445,1.7317766855257894
1710876141768149.8,10.591766499036101,1.7345927764712195
1717880313871807.5,10.584739097237636,1.7373911073232837
1724884485975465.2,10.577710867972,1.7401468878167377
1731888658079123.2,10.570668120730906,1.7428640521758447
1738892830182781.0,10.563739295987448,1.7455771465447194
1745897002286439.0,10.556607086493916,1.7481968045759462
1752901174390096.8,10.549773606607246,1.7508432689053077
1759905346493754.8,10.542779469382838,1.7534382756671536
1766909518597412.5,10.53580051428412,1.7559911583177767
1773913690701070.2,10.528843600046866,1.7585067816218285
1780917862804728.2,10.521934807859974,1.7610015844995774
1787922034908386.0,10.515044779701816,1.76346483813637
1794926207012044.0,10.508154618363623,1.7658969329156433
1801930379115701.8,10.501303765942403,1.7682984734208607
1808934551219359.5,10.494452633123181,1.7706687667260135
1815938723323017.5,10.487634375856738,1.773008415576255
1822942895426675.2,10.480820651285214,1.7753184830036557
1829947067530333.2,10.474048263031916,1.7775988977470198
1836951239633991.0,10.46726557932886,1.779849802840751
1843955411737649.0,10.46052483407485,1.7820715422325937
1850959583841306.8,10.453797728612644,1.7842649372552613
1857963755944964.5,10.447071272126841,1.786434019326712
1864967928048622.5,10.440378081467609,1.788574597228251
1871972100152280.2,10.433708306428025,1.790678055892437
1878976272255938.2,10.42702130240311,1.7927511125463953
1885980444359596.0,10.420385496512171,1.7948102445587604
1892984616463254.0,10.413779174866935,1.796837595494835
1899988788566911.8,10.407133073687962,1.7988303020013316
1906992960670569.5,10.400525294499474,1.8008021912908758
1913997132774227.5,10.394017270030588,1.8027629226196082
1921001304877885.2,10.387483113962071,1.804678677817484
1928005476981543.2,10.38092816597523,1.806579819185753
1935009649085201.0,10.374411469005747,1.8084459055535738
1942013821188859.0,10.367918637381337,1.8102978156187752
1949017993292516.8,10.361454105331049,1.812123916043045
1956022165396174.5,10.354985301548181,1.8139213041656237
1963026337499832.5,10.34854553592522,1.8156888392943547
1970030509603490.2,10.342019775994059,1.8174146723902298
1977034681707148.2,10.33563651767218,1.8191438850616712
1984038853810806.0,10.329256793594222,1.8208497892228268
1991043025914463.8,10.32290630176092,1.8225323179229032
1998047198018121.8,10.316578696024557,1.8241914479914125
2005051370121779.5,10.31028344041452,1.825834457498954
2012055542225437.5,10.304000036363453,1.8274506564525632
2019059714329095.2,10.297720699284934,1.8290427981282447
2026063886432753.2,10.291457376262176,1.8306132717122734
2033068058536411.0,10.285164708654943,1.8321480252804645
2040072230640068.8,10.27894123514213,1.8336770579160302
2047076402743726.8,10.272772560933301,1.8351936911479871
2054080574847384.5,10.26648868486578,1.836657594543173
2061084746951042.5,10.260326381945344,1.8381228848269282
2068088919054700.2,10.2541694186921,1.839568133116562
2075093091158358.2,10.24805329906606,1.840993635665121
2082097263262016.0,10.241957342915315,1.8424010745963397
2089101435365673.8,10.235897819310939,1.8437907205350421
2096105607469331.8,10.229846587378303,1.845158582821893
2103109779572989.5,10.223812322628318,1.8465106748034628
2110113951676647.5,10.217756302010823,1.847832492058785
2117118123780305.2,10.211725446322099,1.8491402382081052
2124122295883963.0,10.205730655630294,1.8504275771037708
2131126467987621.0,10.199777098219387,1.851707526212372
2138130640091278.8,10.193817434989533,1.8529601060184924
2145134812194936.8,10.18789986677546,1.8541977052551002
2152138984298594.5,10.182000040508283,1.8554197833693746
2159143156402252.5,10.176118287878085,1.8566235329212926
2166147328505910.2,10.17023203952119,1.8578094074180243
2173151500609568.0,10.164382425136266,1.8589770148030664
2180155672713226.0,10.158497341998604,1.8601127912788078
2187159844816883.8,10.152710310933113,1.8612547661767205
2194164016920541.8,10.146903335115578,1.8623717136427889
2201168189024199.5,10.141124858212736,1.8634723943537495
2208172361127857.5,10.135367058243679,1.864557876655567
2215176533231515.2,10.129646082132803,1.8656319124413747
2222180705335173.0,10.123914035777311,1.866675794884863
2229184877438831.0,10.118246596538889,1.8677293095564447
2236189049542488.8,10.112585301812468,1.8687485473180003
2243193221646146.8,10.106934783582854,1.869759667178991
2250197393749804.5,10.101210609165808,1.870732480980009
2257201565853462.5,10.095605013621203,1.8717146595945708
2264205737957120.0,10.090025966394883,1.8726816128513775
2271209910060778.0,10.084515899190318,1.8736446966421645
2278214082164436.0,10.078962910607075,1.87458035350219
2285218254268094.0,10.073427152144374,1.8755020688276358
2292222426371752.0,10.0678485445908,1.8763984118653987
2299226598475409.5,10.062366242914774,1.877294199214952
2306230770579067.0,10.056869156772464,1.8781596071350732
2313234942682725.0,10.051424573029387,1.8790282646427718
2320239114786383.0,10.045971221055835,1.8798783355518056
2327243286890041.0,10.040535566664845,1.8807176323254555
2334247458993699.0,10.03513359472579,1.8815431742298954
2341251631097357.0,10.029742083285177,1.8823567485426071
2348255803201014.5,10.024392660538238,1.8831659890514834
2355259975304672.0,10.018932271971003,1.8839184349226854
2362264147408330.0,10.01372616318491,1.8847213771581037
2369268319511988.0,10.008408995776733,1.8854876632934734
2376272491615646.0,10.003127745954922,1.886239581279672
2383276663719304.0,9.997872012034858,1.8869769462036725
2390280835822962.0,9.992625450882068,1.8877049121298188
2397285007926619.5,9.98738660194549,1.8884232547264672
2404289180030277.0,9.982190588849285,1.8891359295780163
2411293352133935.0,9.977012863617361,1.8898187850802368
2418297524237593.0,9.971674047941491,1.890464707002466
2425301696341251.0,9.966602625386706,1.8911509001202422
2432305868444909.0,9.96154387870128,1.8918229863215839
2439310040548566.5,9.956436527289846,1.892482905647597
2446314212652224.5,9.951374951713953,1.8931273108642621
2453318384755882.0,9.946301608282043,1.893758606717777
2460322556859540.0,9.941232030840384,1.8943763497656478
2467326728963198.0,9.936075070850533,1.894969231197963
2474330901066856.0,9.931136418069478,1.895582333897822
2481335073170514.0,9.92616131959961,1.8961730864695892
2488339245274171.5,9.921168573920657,1.8967502821693292
2495343417377829.5,9.916195465773018,1.8973171903561357
2502347589481487.5,9.911157611995264,1.8978561350610115
2509351761585145.0,9.906225098113467,1.8984046648665578
2516355933688803.0,9.901271103045076,1.8989284670086284
2523360105792461.0,9.89646969165548,1.8994868697626064
2530364277896118.5,9.891534611682381,1.8999936274015674
2537368449999776.5,9.886678317405082,1.9005058169008322
2544372622103434.5,9.881823253057389,1.901008604900863
2551376794207092.5,9.876991403101034,1.901503778260442
2558380966310750.0,9.872186720969477,1.9019910251893029
2565385138414408.0,9.86738261473029,1.9024648549524878
2572389310518066.0,9.862586695259917,1.9029313775223264
2579393482621723.5,9.857834733947014,1.9033900056751885
2586397654725381.5,9.853079233403326,1.9038396572879916
2593401826829039.5,9.848339093345812,1.904281155668632
2600405998932697.5,9.843622010067394,1.9047143240239919
2607410171036355.0,9.83891696628685,1.9051392388190167
2614414343140013.0,9.834237897453043,1.905556252234508
2621418515243671.0,9.829556430504661,1.9059656641859302
2628422687347328.5,9.82490335674211,1.9063679500170196
2635426859450986.5,9.820265435910986,1.9067626577847332
2642431031554644.5,9.815699445482664,1.9071500574923472
2649435203658302.5,9.81106583098465,1.9075268788798494
2656439375761960.0,9.806479037528897,1.9078995005784836
2663443547865618.0,9.801908879840163,1.9082647656712297
2670447719969276.0,9.797347285607032,1.9086232045058387
2677451892072933.5,9.79280857873951,1.908974202015749
2684456064176591.5,9.788287627451501,1.909317794757501
2691460236280249.5,9.783757997244432,1.909657203934384
2698464408383907.5,9.779244239573213,1.909987157230485
2705468580487565.0,9.774765987533007,1.9103100075141801
2712472752591223.0,9.770318334167609,1.9106257079404525
2719476924694881.0,9.765862267380435,1.910932909377272
2726481096798538.5,9.761409024973497,1.9112367107783523
2733485268902196.5,9.756945461647673,1.9115283121282682
