Central Density (g/cm^3),Radius (km),Mass (M_sun)
240000000000000.0,15.887953134025281,0.3766867514128012
245497865839411.16,15.756772489095354,0.39203237244600114
250995731678822.28,15.639951978038612,0.4075242876855132
256493597518233.44,15.534858197216776,0.4231351260851916
261991463357644.56,15.44080588633079,0.4388616994847566
267489329197055.72,15.35605601169369,0.45467880899003804
272987195036466.84,15.279529194606319,0.47057281589840433
278485060875878.0,15.210293914824605,0.48652899172540104
283982926715289.1,15.147430324859751,0.5025382071664343
289480792554700.25,15.090424454243886,0.5185873651233587
294978658394111.44,15.038322134664513,0.5346810639687939
300476524233522.56,14.990820716490012,0.550800584469537
305974390072933.7,14.947198164573328,0.5669429075773973
311472255912344.9,14.907136179761345,0.5830981617558808
316970121751756.0,14.870346144168796,0.5992637828773071
322467987591167.1,14.836280323056766,0.6154329008806633
327965853430578.25,14.804909818094844,0.6315994571144143
333463719269989.44,14.775846457780695,0.6477497407502408
338961585109400.56,14.74870499077672,0.6638833497182187
344459450948811.7,14.723407304069585,0.6799876628130993
349957316788222.9,14.699936553163267,0.6960642360234057
355455182627634.0,14.677788667422467,0.7120936011555123
360953048467045.1,14.657214056546222,0.7280878217922584
366450914306456.25,14.637698847468975,0.7440314516724441
371948780145867.44,14.61928636912343,0.7599132284010519
377446645985278.56,14.601914426767035,0.7757375687386749
382944511824689.75,14.585392067004141,0.791484589453474
388442377664100.9,14.569651723019113,0.8071591634138194
393940243503512.0,14.554680769387947,0.8227668394444158
399438109342923.1,14.540383122729592,0.8382933281629402
404935975182334.25,14.526654405543756,0.8537357520355685
410433841021745.4,14.513402234222868,0.8690831950072158
415931706861156.56,14.500548911725126,0.8843441764010841
421429572700567.75,14.488274325573277,0.8995325894009423
426927438539978.9,14.476199352053317,0.9145958015164518
432425304379390.0,14.464617188271,0.9295800075660415
437923170218801.1,14.453265270801657,0.9444515861322289
443421036058212.25,14.44216204410464,0.9592088526203316
448918901897623.4,14.43136542953808,0.9738486646305847
454416767737034.56,14.420670869556652,0.9883474757398166
459914633576445.7,14.410282752853224,1.0027313888039355
465412499415856.9,14.399955661517124,1.0169622443858306
470910365255268.0,14.389945917893021,1.0310829429252844
476408231094679.1,14.37993081663843,1.045093479706247
481906096934090.25,14.369933492902044,1.0590054503038344
487403962773501.4,14.359943806324546,1.0728227852810641
492901828612912.56,14.350046108595805,1.08656944355585
498399694452323.7,14.340100374865136,1.1002569586868174
503897560291734.9,14.330348188935687,1.1138970075076955
509395426131146.0,14.320588982219618,1.1274463257463547
514893291970557.1,14.310842542186247,1.1408717958968921
520391157809968.25,14.301096857984739,1.1541481498800052
525889023649379.44,14.29131846655267,1.1672332214475118
531386889488790.56,14.28184526001584,1.1801277835676318
536884755328201.7,14.272379255844347,1.1927674342205947
542382621167612.8,14.263015257417404,1.2051315137578889
547880487007024.0,14.254006561560313,1.2172075452776778
553378352846435.1,14.244827423823477,1.22892979754652
558876218685846.25,14.235904531380646,1.2403158220278199
564374084525257.5,14.2268777999441,1.2512923186360725
569871950364668.5,14.218310201682904,1.2618874356174863
575369816204079.8,14.209841673684931,1.2720555478584594
580867682043490.8,14.201598785783235,1.2818086648343099
586365547882902.0,14.19358614231555,1.2911523659938449
591863413722313.1,14.18551673241424,1.300154014897602
597361279561724.2,14.177573728624493,1.3088057605137682
602859145401135.5,14.169742062263095,1.3171683076609362
608357011240546.5,14.161900079377519,1.3252637256016921
613854877079957.8,14.154195014318784,1.333119425193857
619352742919368.8,14.14647081262943,1.3407555858780673
624850608758780.0,14.138417768582537,1.3482089465972018
630348474598191.1,14.130818562154658,1.3555277738213387
635846340437602.2,14.122890867458294,1.3626919264779829
641344206277013.5,14.114915329988683,1.3697402883889453
646842072116424.5,14.10686302885819,1.3766802180000497
652339937955835.8,14.098697730704323,1.3835720566267984
657837803795246.8,14.090283516534644,1.3903776563931363
663335669634658.0,14.0818012201583,1.397159269373657
668833535474069.1,14.073198328613724,1.4039535180244087
674331401313480.2,14.064318138903428,1.4105416654166179
679829267152891.4,14.055394703858097,1.4171356807913473
685327132992302.5,14.046298825477892,1.4236596424336332
690824998831713.8,14.036924331511907,1.4301175583918664
696322864671124.8,14.027768832372075,1.4365324489808917
701820730510536.0,14.018282541326382,1.4428673989380538
707318596349947.1,14.008636384383584,1.4491404816091502
712816462189358.2,13.998899493785661,1.4553178953272248
718314328028769.4,13.989147363887243,1.4614498865375993
723812193868180.5,13.979381965138906,1.4675298325196728
729310059707591.8,13.969338847477573,1.4734766952137588
734807925547002.8,13.959384034361262,1.4793893921056605
740305791386414.0,13.949207545095312,1.4852246101644198
745803657225825.1,13.938989582113699,1.490973142958599
751301523065236.2,13.92885581496852,1.496654588051312
756799388904647.4,13.91864444671119,1.5022657415252794
762297254744058.5,13.908156527687789,1.5078106987559752
767795120583469.8,13.897625343054608,1.513266544724239
773292986422880.8,13.887166568271919,1.5186658671746565
778790852262292.0,13.876653234813478,1.5240297230330506
784288718101703.1,13.865990347796384,1.529320898150832
789786583941114.2,13.855303373770763,1.5345477036737956
795284449780525.4,13.844502405931792,1.5396913416725526
800782315619936.5,13.8336520260008,1.5447968157463148
806280181459347.6,13.822735773232727,1.549837410096239
811778047298758.9,13.811818157788723,1.5548299824099996
817275913138170.0,13.80097148335542,1.5597840570271266
822773778977581.1,13.789880719189691,1.564669567980379
828271644816992.2,13.778860685501206,1.5695185519465962
833769510656403.4,13.767712611978578,1.574298261470917
839267376495814.5,13.756682443898331,1.5790620470385113
844765242335225.6,13.745452397609236,1.5837515193145568
850263108174636.9,13.734206663183441,1.58838245928664
855760974014048.0,13.722970980837168,1.592973960042777
861258839853459.1,13.711530449382504,1.5974905531865178
866756705692870.2,13.700226343921917,1.6020064880482339
872254571532281.4,13.688840910455125,1.6064567676295036
877752437371692.5,13.6774597919439,1.6108611876432792
883250303211103.6,13.666033400759055,1.6152298531084188
888748169050514.9,13.654529639646942,1.6195360782116208
894246034889926.0,13.643042239171995,1.6237880230746609
899743900729337.1,13.631524068046925,1.628009795738133
905241766568748.2,13.620022402700636,1.6321913171201186
910739632408159.4,13.608441617321326,1.6363188388191205
916237498247570.5,13.596731400792487,1.640393449220247
921735364086981.6,13.585245327255432,1.6444537318104429
927233229926392.9,13.573753282355522,1.64846460222089
932731095765804.0,13.562140863461241,1.6524366920451563
938228961605215.1,13.55048832366001,1.6563519969030225
943726827444626.2,13.538828121295134,1.660217762185981
949224693284037.4,13.527160118664538,1.6640497444263838
954722559123448.5,13.515514026438877,1.6678454270930327
960220424962859.6,13.503901611040831,1.6716268698529284
965718290802270.9,13.492267304238812,1.6753276121640113
971216156641682.0,13.480646531803174,1.6790166557116961
976714022481093.1,13.468918938226876,1.6826477708567134
982211888320504.2,13.45734182993307,1.6862597548391893
987709754159915.4,13.44565226745763,1.6898239394014554
993207619999326.5,13.434021286558938,1.6933548131413307
998705485838737.6,13.422531113701364,1.6968052738074777
1004203351678148.9,13.410694565417035,1.700235761782802
1009701217517560.0,13.399127786852652,1.7036597211916567
1015199083356971.1,13.387411942109926,1.7070488638696186
1020696949196382.2,13.375584181808371,1.7103886635233567
1026194815035793.4,13.364138036341949,1.7137255174035708
1031692680875204.5,13.352472619905695,1.7169961822878566
1037190546714615.6,13.340625943260521,1.7201582781274436
1042688412554026.9,13.329351210381414,1.7234469113421398
1048186278393438.0,13.31774323125371,1.7266488410425032
1053684144232849.1,13.305652238896414,1.7296592657948262
1059182010072260.2,13.294601163295416,1.7329216867607264
1064679875911671.4,13.283003380377908,1.7360055761412505
1070177741751082.5,13.271374857673184,1.7389865938586972
1075675607590493.6,13.26013406642595,1.7420640704106976
1081173473429904.9,13.247760921960122,1.7448826565965567
1086671339269316.0,13.236657961068705,1.7479198269580987
1092169205108727.1,13.224663617092988,1.7507650481994055
1097667070948138.2,13.21327597762617,1.753705832546599
1103164936787549.4,13.202263201414137,1.7566630193547694
1108662802626960.5,13.190893375413287,1.7595570083545709
1114160668466371.6,13.17931340093249,1.762325408660745
1119658534305782.8,13.168107438438629,1.7651203228796162
1125156400145194.0,13.155954747993022,1.7677275587818684
1130654265984605.0,13.144956914086432,1.7705037426749157
1136152131824016.2,13.13366637628626,1.7732153993830555
1141649997663427.5,13.1228622620853,1.7759937202573306
1147147863502838.5,13.111452023480563,1.7785884008989772
1152645729342249.5,13.099484894696962,1.7809661570485569
1158143595181660.8,13.088620560028762,1.7835651833922614
1163641461021072.0,13.077577885946901,1.786138317990323
1169139326860483.0,13.066966263885323,1.7886131368209912
1174637192699894.2,13.05524011931617,1.79101516677883
1180135058539305.5,13.044614637374785,1.7935469945769102
1185632924378716.5,13.033580315609148,1.7959556459274475
1191130790218127.5,13.022428214500225,1.7982250090898386
1196628656057538.8,13.011622031306848,1.8005738543921825
1202126521896950.0,13.000904976947316,1.8029006106974428
1207624387736361.0,12.99005470757885,1.8052084374719208
1213122253575772.2,12.979743078502667,1.8075549806580502
1218620119415183.5,12.968362602821704,1.8096280954436548
1224117985254594.5,12.957942812525593,1.8118320496132283
1229615851094005.5,12.947358012107513,1.8140069071876168
1235113716933416.8,12.936376730768021,1.8160984776229765
1240611582772828.0,12.92675880963863,1.8184180245623667
1246109448612239.0,12.916203514336411,1.8205063191302433
1251607314451650.2,12.905815622275405,1.8225619548244607
1257105180291061.5,12.895280137458679,1.8245710028387054
1262603046130472.5,12.884475632312288,1.8265501414659642
1268100911969883.5,12.874014364967397,1.8285292202348014
1273598777809294.8,12.863621779510362,1.830493705767212
1279096643648706.0,12.85340163541327,1.8324475601624752
1284594509488117.0,12.843077020631217,1.8343882489104182
1290092375327528.2,12.832255834398204,1.8361299780208244
1295590241166939.5,12.822977759050085,1.8382567494707298
1301088107006350.5,12.812245770676297,1.8399938269313705
1306585972845761.5,12.80199032004243,1.8418286208746153
1312083838685172.8,12.791985802485643,1.8436188350080704
1317581704524584.0,12.782037747175828,1.8454455821195583
1323079570363995.0,12.77218472073809,1.847271775837697
1328577436203406.2,12.761908278503101,1.8489764329853078
1334075302042817.5,12.751792122720603,1.8506772047283608
1339573167882228.5,12.742226694220818,1.8525144941083576
1345071033721639.5,12.732716571794514,1.8542340671615885
1350568899561050.8,12.72217444007514,1.8557781442991486
1356066765400462.0,12.71243681193034,1.8574310577561168
1361564631239873.0,12.702530523596222,1.8590295729449027
1367062497079284.2,12.693448168419964,1.8607832178238282
1372560362918695.2,12.683757297738106,1.8623824818255537
1378058228758106.5,12.673867437143715,1.863874703057181
1383556094597517.8,12.664505372529065,1.865449515075746
1389053960436928.8,12.654349183323085,1.8668970979725006
1394551826276340.0,12.645256192490065,1.8684542474673622
1400049692115751.0,12.635799596052657,1.8699622451122229
1405547557955162.2,12.625889799516667,1.8713045521464036
1411045423794573.2,12.616495694387792,1.872783758157726
1416543289633984.5,12.607100973393361,1.8741835073494941
1422041155473395.8,12.597592210178211,1.8755600451164158
1427539021312806.8,12.588036536297032,1.8769032588304033
1433036887152218.0,12.579100938626784,1.8783868330243245
1438534752991629.0,12.570326275692855,1.8798061886389168
1444032618831040.2,12.560002172441452,1.8809221263675204
1449530484670451.2,12.551485451894766,1.8824173239717212
1455028350509862.5,12.542511412351784,1.883762067295941
1460526216349273.8,12.533001755057988,1.8849455078600614
1466024082188684.8,12.524358367458111,1.8863113032394128
1471521948028096.0,12.515192621192298,1.8875571270882605
1477019813867507.0,12.505817563439166,1.888719660679476
1482517679706918.2,12.496855505367506,1.8899701985496336
1488015545546329.2,12.487738122922906,1.8911532398156319
1493513411385740.5,12.479093602708266,1.892430234220139
1499011277225151.8,12.470085743623713,1.8935965497699816
1504509143064562.8,12.460967273844775,1.8947603891564018
1510007008903974.0,12.452219035429192,1.8959452241972725
1515504874743385.0,12.44336961151046,1.897092458766608
1521002740582796.2,12.434441303082208,1.8982008624241409
1526500606422207.2,12.425284343658271,1.8992247687306516
1531998472261618.5,12.416942681643718,1.9004254536307088
1537496338101029.8,12.40773300556406,1.9014135409386466
1542994203940440.8,12.39947288590828,1.902571949990475
1548492069779852.0,12.389939718496006,1.9034891256662345
1553989935619263.0,12.381560434165106,1.9045956007311964
1559487801458674.2,12.37338496366485,1.905720272704541
1564985667298085.2,12.363854507719754,1.906576218690394
1570483533137496.5,12.355393157131795,1.907612741636258
1575981398976907.8,12.347448409120462,1.9087294651546258
1581479264816318.8,12.338598547534053,1.9096690115464738
1586977130655730.0,12.330130303670341,1.9106548600402318
1592474996495141.0,12.321434235779462,1.91158530202698
1597972862334552.2,12.312725563614975,1.9124953052679734
1603470728173963.2,12.304314177932481,1.9134238669432568
1608968594013374.5,12.295883942385927,1.914385943592566
1614466459852785.8,12.287591424677016,1.9153038099321529
1619964325692196.8,12.279322225861732,1.9162250212112442
1625462191531608.0,12.270286978497786,1.9169898612367011
1630960057371019.0,12.262159968850987,1.9178820775735308
1636457923210430.2,12.254136940566148,1.9188049851751425
1641955789049841.2,12.245655896635544,1.9196299291130041
1647453654889252.5,12.237361431495412,1.920472105108875
1652951520728663.8,12.228915667082523,1.9212396760846127
1658449386568074.8,12.22092746488335,1.9221007967943096
1663947252407486.0,12.212601519571782,1.9229043900296192
1669445118246897.0,12.204695064348424,1.9237272938965733
1674942984086308.2,12.196033989731967,1.924403270408631
1680440849925719.2,12.188185035340643,1.9252305085177803
1685938715765130.5,12.180248027083133,1.9259946468118847
1691436581604541.8,12.172251741791982,1.926765293169105
1696934447443952.8,12.163935985829815,1.927412675843495
1702432313283364.0,12.156271871425735,1.92823127412616
1707930179122775.0,12.147800746020954,1.928830753051602
1713428044962186.2,12.140032682565227,1.9295619804697184
1718925910801597.2,12.132451442601699,1.930332422147588
1724423776641008.5,12.124888615622751,1.9310588634145713
1729921642480419.8,12.116713959895582,1.9316907468927655
1735419508319830.8,12.108312765111387,1.9322344051020808
1740917374159242.0,12.101195468103914,1.9330435723269468
1746415239998653.0,12.093349634300102,1.9336713005193151
1751913105838064.2,12.085619308133388,1.9342982732698457
1757410971677475.2,12.077863082410305,1.934954428881055
1762908837516886.5,12.069790017102557,1.9355024845780036
1768406703356297.8,12.0624849969141,1.9361790883856385
1773904569195708.8,12.054431991257323,1.936715267620865
1779402435035120.0,12.04705856863234,1.9373962593356766
1784900300874531.0,12.039420369816565,1.9379738361001455
1790398166713942.2,12.031749602122916,1.93855735575138
1795896032553353.2,12.023973810715317,1.9391039869716946
1801393898392764.5,12.016529765626027,1.939682446172232
1806891764232175.8,12.009120722783745,1.9402541747649111
1812389630071586.8,12.001488418143635,1.9407764703884938
1817887495910998.0,11.993463041769,1.9412311729517955
1823385361750409.0,11.986495921420424,1.9418489609963407
1828883227589820.2,11.978776654721624,1.9423489501328328
1834381093429231.2,11.971272450227325,1.9428212968403824
1839878959268642.5,11.963857841636674,1.9433246963496555
1845376825108053.8,11.956573642996235,1.943839107168112
1850874690947464.8,11.949069535575155,1.944295292535365
1856372556786876.0,11.941899138209537,1.9448007187912804
1861870422626287.0,11.934463051628423,1.9452398905477044
1867368288465698.2,11.927380908626642,1.9457314578753404
1872866154305109.2,11.920203153865609,1.946195779911702
1878364020144520.5,11.913071396230855,1.9466402105834666
1883861885983931.8,11.906070862416886,1.9470888976565686
1889359751823342.8,11.89882327813016,1.9475009483905894
1894857617662754.0,11.891752425913227,1.947900845286886
1900355483502165.0,11.884799145142344,1.9483302964679607
1905853349341576.2,11.877428118402026,1.948654698355924
1911351215180987.2,11.870765143979108,1.9490991646968907
1916849081020398.5,11.864044839194431,1.9495308164170009
1922346946859809.8,11.857170003075234,1.9498955008227485
1927844812699220.8,11.850417068903644,1.9502742825312005
1933342678538632.0,11.843596185385836,1.9506342777467502
1938840544378043.0,11.83656063956656,1.9509630055716214
1944338410217454.2,11.830021577466148,1.9513504463268823
1949836276056865.2,11.823511478678068,1.951721938202997
1955334141896276.5,11.816658430933241,1.9520542244703976
1960832007735687.8,11.810156904446128,1.9524150923357773
1966329873575098.8,11.80307024723428,1.9526522432305076
1971827739414510.0,11.796461008574306,1.9529700457783978
1977325605253921.0,11.790178573199233,1.9533460245966947
1982823471093332.2,11.783420069271745,1.9536125541909877
1988321336932743.2,11.777148372224202,1.9539685166730685
1993819202772154.5,11.770686109737653,1.9542744250321757
1999317068611565.5,11.764028196889566,1.954548848557383
2004814934450976.8,11.75747471887388,1.9548131024858602
2010312800290388.0,11.751011431916421,1.955110211762883
2015810666129799.0,11.744179731703603,1.9553256849597735
2021308531969210.2,11.73812091915542,1.9556588088822089
2026806397808621.2,11.731705059281527,1.9559321040067288
2032304263648032.5,11.725223169743062,1.9561728554840767
2037802129487443.5,11.71892505985366,1.956461542957434
2043299995326854.8,11.712554164895984,1.9567109225788872
2048797861166266.0,11.705520976631833,1.9568419317042303
2054295727005677.0,11.69955236608087,1.957133153574483
2059793592845088.2,11.693513608899712,1.95741723448652
2065291458684499.2,11.687112674126265,1.9576564836149264
2070789324523910.5,11.680549344828664,1.9578118094022876
2076287190363321.5,11.674487203554541,1.9580782068819025
2081785056202732.8,11.667959563179892,1.9582618826273057
2087282922042144.0,11.661372312415402,1.958413882933157
2092780787881555.0,11.655561982647185,1.9586801571317247
2098278653720966.2,11.649419332710353,1.958893387261653
2103776519560377.2,11.642886873886166,1.959032056425255
2109274385399788.5,11.637046046253447,1.9592710797701474
2114772251239199.5,11.63092789048114,1.9594523092235177
2120270117078610.8,11.624548321887008,1.9595962835513363
2125767982918022.0,11.618397361932844,1.9597537485513792
2131265848757433.0,11.612430164440005,1.959956786182419
2136763714596844.2,11.605832171187432,1.960055692657053
2142261580436255.2,11.600303412004912,1.960295679486942
2147759446275666.5,11.593876326792522,1.9603915331542225
2153257312115077.5,11.587973636459244,1.960562031641793
2158755177954488.8,11.582141304231028,1.9607392764103413
2164253043793900.0,11.576146996879089,1.9608795515484603
2169750909633311.0,11.56966277596031,1.9609349773529257
2175248775472722.2,11.564131717565369,1.9611432295163813
2180746641312133.2,11.558147250204277,1.961263037007106
